Feb. 27, 2025   10:48:44
Cyclic Voltammetry
File: c:/users/lab/d3talesrobotics/data/cond3_all_tempo_low_single/20250227/exp01_cc1(c)cccc(c)(c)n1[o]\cycle02_cv03_10_48_12.bin
Data Source:  Experiment
Instrument Model:  CHI650E
Header:  CV cycle02_cv03_10_48_12
Note: 

Init E (V) = -0.135
High E (V) = 0.785
Low E (V) = -0.135
Final E (V) = -0.135
Init P/N = P
Scan Rate (V/s) = 0.075
Segment = 2
Sample Interval (V) = 0.01
Quiet Time (sec) = 2
Sensitivity (A/V) = 1e-4
Comp R (ohm) = 47.8

Segment 1:
Ep = 0.430V
ip = 4.498e-4A
Ah = 6.600e-4C

Segment 2:
Ep = 0.230V
ip = -4.287e-4A
Ah = -5.973e-4C

Potential/V, Current/A

-0.130, -1.002e-5
-0.120, -9.661e-6
-0.110, -9.346e-6
-0.100, -9.049e-6
-0.090, -8.775e-6
-0.080, -8.520e-6
-0.070, -8.278e-6
-0.060, -8.053e-6
-0.050, -7.838e-6
-0.040, -7.633e-6
-0.030, -7.439e-6
-0.020, -7.252e-6
-0.010, -7.075e-6
-0.000, -6.908e-6
0.010, -6.743e-6
0.020, -6.586e-6
0.030, -6.432e-6
0.040, -6.277e-6
0.050, -6.129e-6
0.060, -5.978e-6
0.070, -5.826e-6
0.080, -5.665e-6
0.090, -5.493e-6
0.100, -5.298e-6
0.110, -5.067e-6
0.120, -4.788e-6
0.130, -4.439e-6
0.140, -3.977e-6
0.150, -3.349e-6
0.160, -2.494e-6
0.170, -1.283e-6
0.180, 4.177e-7
0.190, 2.799e-6
0.200, 6.138e-6
0.210, 1.077e-5
0.220, 1.705e-5
0.230, 2.542e-5
0.240, 3.628e-5
0.250, 4.999e-5
0.260, 6.681e-5
0.270, 8.681e-5
0.280, 1.100e-4
0.290, 1.361e-4
0.300, 1.649e-4
0.310, 1.960e-4
0.320, 2.288e-4
0.330, 2.628e-4
0.340, 2.975e-4
0.350, 3.321e-4
0.360, 3.660e-4
0.370, 3.984e-4
0.380, 4.284e-4
0.390, 4.549e-4
0.400, 4.769e-4
0.410, 4.932e-4
0.420, 5.025e-4
0.430, 5.036e-4
0.440, 4.961e-4
0.450, 4.802e-4
0.460, 4.583e-4
0.470, 4.337e-4
0.480, 4.096e-4
0.490, 3.880e-4
0.500, 3.691e-4
0.510, 3.529e-4
0.520, 3.388e-4
0.530, 3.265e-4
0.540, 3.156e-4
0.550, 3.060e-4
0.560, 2.973e-4
0.570, 2.895e-4
0.580, 2.824e-4
0.590, 2.758e-4
0.600, 2.698e-4
0.610, 2.643e-4
0.620, 2.591e-4
0.630, 2.543e-4
0.640, 2.498e-4
0.650, 2.456e-4
0.660, 2.416e-4
0.670, 2.379e-4
0.680, 2.344e-4
0.690, 2.310e-4
0.700, 2.279e-4
0.710, 2.248e-4
0.720, 2.220e-4
0.730, 2.193e-4
0.740, 2.167e-4
0.750, 2.142e-4
0.760, 2.119e-4
0.770, 2.097e-4
0.780, 2.075e-4
0.780, 2.047e-4
0.770, 2.025e-4
0.760, 2.004e-4
0.750, 1.984e-4
0.740, 1.965e-4
0.730, 1.948e-4
0.720, 1.931e-4
0.710, 1.914e-4
0.700, 1.898e-4
0.690, 1.883e-4
0.680, 1.868e-4
0.670, 1.854e-4
0.660, 1.841e-4
0.650, 1.827e-4
0.640, 1.814e-4
0.630, 1.802e-4
0.620, 1.790e-4
0.610, 1.779e-4
0.600, 1.767e-4
0.590, 1.757e-4
0.580, 1.746e-4
0.570, 1.736e-4
0.560, 1.726e-4
0.550, 1.715e-4
0.540, 1.705e-4
0.530, 1.694e-4
0.520, 1.683e-4
0.510, 1.670e-4
0.500, 1.655e-4
0.490, 1.637e-4
0.480, 1.616e-4
0.470, 1.589e-4
0.460, 1.555e-4
0.450, 1.509e-4
0.440, 1.450e-4
0.430, 1.372e-4
0.420, 1.272e-4
0.410, 1.147e-4
0.400, 9.918e-5
0.390, 8.063e-5
0.380, 5.894e-5
0.370, 3.426e-5
0.360, 6.738e-6
0.350, -2.328e-5
0.340, -5.528e-5
0.330, -8.890e-5
0.320, -1.234e-4
0.310, -1.580e-4
0.300, -1.922e-4
0.290, -2.252e-4
0.280, -2.564e-4
0.270, -2.848e-4
0.260, -3.092e-4
0.250, -3.284e-4
0.240, -3.412e-4
0.230, -3.463e-4
0.220, -3.428e-4
0.210, -3.305e-4
0.200, -3.109e-4
0.190, -2.865e-4
0.180, -2.611e-4
0.170, -2.374e-4
0.160, -2.165e-4
0.150, -1.983e-4
0.140, -1.824e-4
0.130, -1.688e-4
0.120, -1.568e-4
0.110, -1.461e-4
0.100, -1.366e-4
0.090, -1.281e-4
0.080, -1.205e-4
0.070, -1.134e-4
0.060, -1.070e-4
0.050, -1.011e-4
0.040, -9.575e-5
0.030, -9.075e-5
0.020, -8.606e-5
0.010, -8.178e-5
0.000, -7.775e-5
-0.010, -7.399e-5
-0.020, -7.046e-5
-0.030, -6.716e-5
-0.040, -6.407e-5
-0.050, -6.115e-5
-0.060, -5.841e-5
-0.070, -5.581e-5
-0.080, -5.337e-5
-0.090, -5.108e-5
-0.100, -4.887e-5
-0.110, -4.681e-5
-0.120, -4.488e-5
-0.130, -4.299e-5
