Jan. 31, 2024   09:45:15
Cyclic Voltammetry
File: c:/users/lab/d3talesrobotics/roboticsui/robotics_api/workflows/actions/examples\potentiostatstation_test.bin
Data Source:  Experiment
Instrument Model:  CHI650E
Header:  CV PotentiostatStation_Test
Note: 

Init E (V) = 0
High E (V) = 0.5
Low E (V) = 0
Final E (V) = 0
Init P/N = P
Scan Rate (V/s) = 0.1
Segment = 2
Sample Interval (V) = 0.01
Quiet Time (sec) = 2
Sensitivity (A/V) = 1e-5

Segment 1:

Segment 2:

Potential/V, Current/A

0.005, 6.045e-9
0.015, 8.245e-9
0.025, 8.668e-9
0.035, 8.491e-9
0.045, 8.668e-9
0.055, 8.776e-9
0.065, 8.943e-9
0.075, 9.120e-9
0.085, 9.031e-9
0.095, 9.198e-9
0.105, 9.228e-9
0.115, 9.159e-9
0.125, 9.110e-9
0.135, 9.434e-9
0.145, 9.297e-9
0.155, 8.933e-9
0.165, 9.179e-9
0.175, 9.071e-9
0.185, 8.923e-9
0.195, 8.727e-9
0.205, 8.756e-9
0.215, 9.012e-9
0.225, 8.992e-9
0.235, 8.815e-9
0.245, 9.208e-9
0.255, 8.796e-9
0.265, 8.884e-9
0.275, 8.776e-9
0.285, 8.756e-9
0.295, 8.913e-9
0.305, 8.579e-9
0.315, 9.218e-9
0.325, 9.287e-9
0.335, 9.444e-9
0.345, 9.808e-9
0.355, 9.739e-9
0.365, 1.011e-8
0.375, 1.018e-8
0.385, 1.024e-8
0.395, 1.122e-8
0.405, 1.089e-8
0.415, 1.115e-8
0.425, 1.161e-8
0.435, 1.229e-8
0.445, 1.282e-8
0.455, 1.304e-8
0.465, 1.346e-8
0.475, 1.319e-8
0.485, 1.386e-8
0.495, 1.416e-8
0.495, 7.115e-9
0.485, 3.608e-9
0.475, 2.724e-9
0.465, 2.733e-9
0.455, 1.220e-9
0.445, 1.466e-9
0.435, 1.073e-9
0.425, 1.043e-9
0.415, 5.522e-10
0.405, 8.175e-10
0.395, 3.655e-10
0.385, 3.557e-10
0.375, 1.002e-10
0.365, -7.859e-12
0.355, -6.563e-10
0.345, -3.026e-10
0.335, -5.679e-10
0.325, -4.991e-10
0.315, -6.956e-10
0.305, -6.858e-10
0.295, -1.010e-9
0.285, -1.207e-9
0.275, -1.138e-9
0.265, -1.285e-9
0.255, -1.609e-9
0.245, -1.482e-9
0.235, -2.287e-9
0.225, -2.081e-9
0.215, -2.474e-9
0.205, -2.287e-9
0.195, -2.307e-9
0.185, -2.268e-9
0.175, -2.857e-9
0.165, -2.955e-9
0.155, -3.024e-9
0.145, -3.466e-9
0.135, -3.594e-9
0.125, -3.712e-9
0.115, -3.712e-9
0.105, -4.046e-9
0.095, -3.800e-9
0.085, -4.429e-9
0.075, -5.107e-9
0.065, -4.567e-9
0.055, -4.753e-9
0.045, -5.304e-9
0.035, -5.058e-9
0.025, -5.372e-9
0.015, -5.461e-9
0.005, -5.726e-9
