Jan. 20, 2025   10:43:59
Cyclic Voltammetry
File: c:/users/lab/d3talesrobotics/roboticsui/test_data/cv_testing\cv_fc_test01_mcr.bin
Data Source:  Experiment
Instrument Model:  CHI604D
Header: CV CV_Fc_test_mcr
Note: 

Init E (V) = 0
High E (V) = 0.5
Low E (V) = -0.2
Final E (V) = -0.2
Init P/N = P
Scan Rate (V/s) = 0.1
Segment = 2
Sample Interval (V) = 0.01
Quiet Time (sec) = 2
Sensitivity (A/V) = 1e-6

Results:

Channel 1:
Segment 1:

Segment 2:

Potential/V, Current/A

0.005, -7.151e-10
0.015, -6.353e-10
0.025, -6.246e-10
0.035, -5.924e-10
0.045, -5.350e-10
0.055, -5.106e-10
0.065, -4.717e-10
0.075, -4.357e-10
0.085, -4.298e-10
0.095, -4.133e-10
0.105, -3.792e-10
0.115, -3.354e-10
0.125, -3.100e-10
0.135, -2.672e-10
0.145, -2.117e-10
0.155, -1.484e-10
0.165, -7.050e-11
0.175, 1.519e-11
0.185, 1.087e-10
0.195, 2.148e-10
0.205, 3.414e-10
0.215, 4.865e-10
0.225, 6.540e-10
0.235, 8.633e-10
0.245, 1.077e-9
0.255, 1.333e-9
0.265, 1.620e-9
0.275, 1.968e-9
0.285, 2.353e-9
0.295, 2.795e-9
0.305, 3.318e-9
0.315, 3.922e-9
0.325, 4.622e-9
0.335, 5.425e-9
0.345, 6.376e-9
0.355, 7.485e-9
0.365, 8.742e-9
0.375, 1.018e-8
0.385, 1.177e-8
0.395, 1.362e-8
0.405, 1.576e-8
0.415, 1.837e-8
0.425, 2.172e-8
0.435, 2.608e-8
0.445, 3.188e-8
0.455, 3.968e-8
0.465, 5.019e-8
0.475, 6.419e-8
0.485, 8.250e-8
0.495, 1.058e-7
0.495, 8.340e-8
0.485, 4.949e-8
0.475, 3.253e-8
0.465, 2.180e-8
0.455, 1.478e-8
0.445, 1.016e-8
0.435, 7.091e-9
0.425, 4.964e-9
0.415, 3.478e-9
0.405, 2.416e-9
0.395, 1.569e-9
0.385, 9.598e-10
0.375, 4.466e-10
0.365, 7.264e-11
0.355, -2.370e-10
0.345, -4.766e-10
0.335, -6.820e-10
0.325, -8.534e-10
0.315, -9.897e-10
0.305, -1.145e-9
0.295, -1.278e-9
0.285, -1.420e-9
0.275, -1.535e-9
0.265, -1.605e-9
0.255, -1.684e-9
0.245, -1.750e-9
0.235, -1.800e-9
0.225, -1.831e-9
0.215, -1.865e-9
0.205, -1.885e-9
0.195, -1.897e-9
0.185, -1.921e-9
0.175, -1.929e-9
0.165, -1.944e-9
0.155, -1.958e-9
0.145, -1.956e-9
0.135, -1.984e-9
0.125, -2.000e-9
0.115, -2.015e-9
0.105, -2.027e-9
0.095, -2.038e-9
0.085, -2.053e-9
0.075, -2.063e-9
0.065, -2.086e-9
0.055, -2.097e-9
0.045, -2.119e-9
0.035, -2.138e-9
0.025, -2.166e-9
0.015, -2.201e-9
0.005, -2.211e-9
-0.005, -2.254e-9
-0.015, -2.284e-9
-0.025, -2.305e-9
-0.035, -2.345e-9
-0.045, -2.364e-9
-0.055, -2.405e-9
-0.065, -2.446e-9
-0.075, -2.491e-9
-0.085, -2.529e-9
-0.095, -2.582e-9
-0.105, -2.642e-9
-0.115, -2.681e-9
-0.125, -2.739e-9
-0.135, -2.797e-9
-0.145, -2.867e-9
-0.155, -2.933e-9
-0.165, -3.003e-9
-0.175, -3.079e-9
-0.185, -3.148e-9
-0.195, -3.226e-9
