Jan. 20, 2025   13:16:00
Cyclic Voltammetry
File: c:/users/lab/d3talesrobotics/roboticsui/test_data/cv_testing\cv_tempo_test03.bin
Data Source:  Experiment
Instrument Model:  CHI604D
Header: CV CV_tempo_test03
Note: 

Init E (V) = 0
High E (V) = 0.7
Low E (V) = 0
Final E (V) = 0
Init P/N = P
Scan Rate (V/s) = 0.1
Segment = 2
Sample Interval (V) = 0.01
Quiet Time (sec) = 2
Sensitivity (A/V) = 1e-4
Comp R (ohm) = 300.9

Results:

Channel 1:
Segment 1:
Ep = 0.605V
ip = 1.721e-5A
Ah = 1.905e-5C

Segment 2:
Ep = 0.385V
ip = -8.869e-6A
Ah = -1.200e-5C

Potential/V, Current/A

0.005, -3.032e-8
0.015, -5.492e-9
0.025, 7.751e-9
0.035, 1.749e-8
0.045, 2.606e-8
0.055, 3.356e-8
0.065, 4.066e-8
0.075, 4.690e-8
0.085, 5.391e-8
0.095, 5.995e-8
0.105, 6.686e-8
0.115, 7.338e-8
0.125, 8.020e-8
0.135, 8.838e-8
0.145, 9.851e-8
0.155, 1.112e-7
0.165, 1.250e-7
0.175, 1.398e-7
0.185, 1.560e-7
0.195, 1.729e-7
0.205, 1.900e-7
0.215, 2.089e-7
0.225, 2.291e-7
0.235, 2.512e-7
0.245, 2.754e-7
0.255, 3.009e-7
0.265, 3.277e-7
0.275, 3.583e-7
0.285, 3.928e-7
0.295, 4.305e-7
0.305, 4.744e-7
0.315, 5.267e-7
0.325, 5.862e-7
0.335, 6.712e-7
0.345, 7.736e-7
0.355, 9.014e-7
0.365, 1.078e-6
0.375, 1.307e-6
0.385, 1.596e-6
0.395, 1.962e-6
0.405, 2.432e-6
0.415, 2.999e-6
0.425, 3.694e-6
0.435, 4.508e-6
0.445, 5.440e-6
0.455, 6.485e-6
0.465, 7.635e-6
0.475, 8.870e-6
0.485, 1.017e-5
0.495, 1.154e-5
0.505, 1.293e-5
0.515, 1.435e-5
0.525, 1.575e-5
0.535, 1.711e-5
0.545, 1.842e-5
0.555, 1.964e-5
0.565, 2.073e-5
0.575, 2.168e-5
0.585, 2.243e-5
0.595, 2.295e-5
0.605, 2.320e-5
0.615, 2.317e-5
0.625, 2.285e-5
0.635, 2.227e-5
0.645, 2.150e-5
0.655, 2.066e-5
0.665, 1.982e-5
0.675, 1.904e-5
0.685, 1.833e-5
0.695, 1.771e-5
0.695, 1.654e-5
0.685, 1.553e-5
0.675, 1.477e-5
0.665, 1.410e-5
0.655, 1.349e-5
0.645, 1.290e-5
0.635, 1.231e-5
0.625, 1.171e-5
0.615, 1.108e-5
0.605, 1.041e-5
0.595, 9.678e-6
0.585, 8.887e-6
0.575, 8.015e-6
0.565, 7.068e-6
0.555, 6.039e-6
0.545, 4.931e-6
0.535, 3.753e-6
0.525, 2.508e-6
0.515, 1.210e-6
0.505, -1.309e-7
0.495, -1.485e-6
0.485, -2.844e-6
0.475, -4.191e-6
0.465, -5.505e-6
0.455, -6.762e-6
0.445, -7.930e-6
0.435, -8.985e-6
0.425, -9.896e-6
0.415, -1.064e-5
0.405, -1.116e-5
0.395, -1.148e-5
0.385, -1.156e-5
0.375, -1.140e-5
0.365, -1.105e-5
0.355, -1.055e-5
0.345, -9.957e-6
0.335, -9.331e-6
0.325, -8.708e-6
0.315, -8.119e-6
0.305, -7.583e-6
0.295, -7.089e-6
0.285, -6.647e-6
0.275, -6.244e-6
0.265, -5.885e-6
0.255, -5.561e-6
0.245, -5.267e-6
0.235, -4.998e-6
0.225, -4.756e-6
0.215, -4.532e-6
0.205, -4.330e-6
0.195, -4.139e-6
0.185, -3.971e-6
0.175, -3.813e-6
0.165, -3.660e-6
0.155, -3.523e-6
0.145, -3.391e-6
0.135, -3.274e-6
0.125, -3.160e-6
0.115, -3.055e-6
0.105, -2.952e-6
0.095, -2.863e-6
0.085, -2.774e-6
0.075, -2.689e-6
0.065, -2.614e-6
0.055, -2.539e-6
0.045, -2.467e-6
0.035, -2.403e-6
0.025, -2.346e-6
0.015, -2.282e-6
0.005, -2.224e-6
