Jan. 16, 2025   15:59:53
Cyclic Voltammetry
File: c:/users/lab/d3talesrobotics/roboticsui/test_data/cv_testing\cvum_fc_test01.bin
Data Source:  Experiment
Instrument Model:  CHI650E
Header:  CV CVUM_Fc_test01
Note: 

Init E (V) = 0
High E (V) = 0.5
Low E (V) = -0.2
Final E (V) = -0.2
Init P/N = P
Scan Rate (V/s) = 0.1
Segment = 2
Sample Interval (V) = 0.01
Quiet Time (sec) = 2
Sensitivity (A/V) = 1e-6

Segment 1:
Segment 2:

Potential/V, Current/A

0.005, 6.170e-11
0.015, 5.876e-11
0.025, 6.465e-11
0.035, 6.269e-11
0.045, 6.367e-11
0.055, 6.956e-11
0.065, 6.269e-11
0.075, 6.760e-11
0.085, 6.858e-11
0.095, 7.349e-11
0.105, 6.662e-11
0.115, 7.055e-11
0.125, 7.153e-11
0.135, 7.349e-11
0.145, 7.448e-11
0.155, 6.956e-11
0.165, 7.251e-11
0.175, 7.251e-11
0.185, 7.251e-11
0.195, 7.644e-11
0.205, 6.956e-11
0.215, 7.251e-11
0.225, 6.563e-11
0.235, 7.251e-11
0.245, 6.858e-11
0.255, 7.448e-11
0.265, 7.055e-11
0.275, 6.563e-11
0.285, 7.349e-11
0.295, 6.662e-11
0.305, 7.055e-11
0.315, 6.563e-11
0.325, 7.055e-11
0.335, 7.153e-11
0.345, 6.662e-11
0.355, 6.465e-11
0.365, 6.662e-11
0.375, 6.465e-11
0.385, 7.349e-11
0.395, 6.760e-11
0.405, 6.563e-11
0.415, 5.974e-11
0.425, 6.760e-11
0.435, 7.055e-11
0.445, 6.170e-11
0.455, 6.760e-11
0.465, 6.563e-11
0.475, 5.974e-11
0.485, 6.563e-11
0.495, 6.465e-11
0.495, 9.314e-11
0.485, 8.823e-11
0.475, 8.823e-11
0.465, 8.921e-11
0.455, 9.118e-11
0.445, 9.020e-11
0.435, 8.332e-11
0.425, 8.627e-11
0.415, 8.528e-11
0.405, 8.921e-11
0.395, 8.823e-11
0.385, 9.314e-11
0.375, 9.118e-11
0.365, 9.314e-11
0.355, 9.118e-11
0.345, 8.528e-11
0.335, 8.332e-11
0.325, 8.921e-11
0.315, 8.332e-11
0.305, 8.921e-11
0.295, 8.725e-11
0.285, 9.118e-11
0.275, 8.332e-11
0.265, 8.921e-11
0.255, 9.118e-11
0.245, 8.528e-11
0.235, 9.216e-11
0.225, 8.528e-11
0.215, 8.430e-11
0.205, 8.921e-11
0.195, 8.528e-11
0.185, 8.921e-11
0.175, 9.314e-11
0.165, 9.118e-11
0.155, 9.314e-11
0.145, 8.921e-11
0.135, 9.118e-11
0.125, 8.725e-11
0.115, 8.823e-11
0.105, 9.020e-11
0.095, 8.921e-11
0.085, 8.921e-11
0.075, 8.430e-11
0.065, 8.430e-11
0.055, 8.921e-11
0.045, 9.314e-11
0.035, 9.216e-11
0.025, 8.528e-11
0.015, 8.430e-11
0.005, 8.921e-11
-0.005, 9.020e-11
-0.015, 9.707e-11
-0.025, 8.627e-11
-0.035, 9.511e-11
-0.045, 9.314e-11
-0.055, 9.314e-11
-0.065, 9.511e-11
-0.075, 9.413e-11
-0.085, 9.314e-11
-0.095, 9.707e-11
-0.105, 9.314e-11
-0.115, 9.118e-11
-0.125, 9.118e-11
-0.135, 9.707e-11
-0.145, 8.725e-11
-0.155, 9.511e-11
-0.165, 9.707e-11
-0.175, 9.707e-11
-0.185, 9.707e-11
-0.195, 1.010e-10
