Feb. 1, 2024   14:21:55
A.C. Impedance
File: c:\users\lab\d3talesrobotics\roboticsui\robotics_api\workflows\actions\examples\chi_gui_eis_test 2.csv
Data Source:  Experiment
Instrument Model:  CHI650E
Header: 
Note: 

Init E (V) = 0
High Frequency (Hz) = 1e+5
Low Frequency (Hz) = 0.1
Imp SF
Amplitude (V) = 0.01
Quiet Time (sec) = 2
Cycles (.1-1Hz) = 1

Freq/Hz, Z'/ohm, Z"/ohm, Z/ohm, Phase/deg

8.252e+4, -4.648e+4, -7.451e+4, 8.782e+4, -122.0
6.812e+4, -6.162e+4, -1.021e+5, 1.192e+5, -121.1
5.625e+4, -7.829e+4, -1.394e+5, 1.599e+5, -119.3
4.644e+4, -9.727e+4, -1.916e+5, 2.149e+5, -116.9
3.833e+4, -1.102e+5, -2.587e+5, 2.812e+5, -113.1
3.164e+4, -1.196e+5, -3.418e+5, 3.621e+5, -109.3
2.612e+4, -1.261e+5, -4.273e+5, 4.455e+5, -106.4
2.153e+4, -1.233e+5, -5.326e+5, 5.466e+5, -103.0
1.777e+4, -1.118e+5, -6.700e+5, 6.793e+5, -99.5
1.470e+4, -1.077e+5, -8.303e+5, 8.372e+5, -97.4
1.211e+4, -1.015e+5, -1.025e+6, 1.030e+6, -95.7
1.001e+4, 9.996e+4, -3.522e+6, 3.524e+6, -88.4
8.252e+3, 7.910e+5, -2.030e+6, 2.179e+6, -68.7
6.812e+3, 9.685e+5, -1.682e+6, 1.941e+6, -60.1
5.625e+3, 8.122e+5, -7.429e+6, 7.473e+6, -83.8
4.643e+3, 6.456e+5, -1.198e+7, 1.200e+7, -86.9
3.833e+3, -1.959e+5, -1.834e+7, 1.835e+7, -90.6
3.164e+3, -5.234e+3, -2.320e+7, 2.320e+7, -90.0
2.612e+3, -2.080e+6, -2.734e+7, 2.742e+7, -94.4
2.153e+3, -7.331e+6, -2.673e+7, 2.772e+7, -105.3
1.777e+3, -7.064e+6, -3.118e+7, 3.197e+7, -102.8
1.470e+3, -6.117e+5, -4.138e+7, 4.139e+7, -90.8
1.211e+3, 1.541e+6, -4.620e+7, 4.623e+7, -88.1
1.001e+3, 3.643e+5, -3.868e+7, 3.869e+7, -89.5
8.252e+2, 3.383e+5, -2.197e+7, 2.198e+7, -89.1
6.836e+2, 2.539e+5, -1.191e+7, 1.191e+7, -88.8
5.615e+2, 7.569e+5, -8.219e+6, 8.254e+6, -84.7
4.639e+2, 1.079e+6, -1.019e+7, 1.025e+7, -84.0
3.809e+2, 1.465e+6, -1.382e+7, 1.390e+7, -84.0
3.174e+2, 1.766e+6, -1.812e+7, 1.820e+7, -84.4
2.588e+2, 2.483e+6, -2.232e+7, 2.246e+7, -83.7
2.148e+2, 3.120e+6, -2.726e+7, 2.744e+7, -83.5
1.758e+2, 5.027e+6, -3.216e+7, 3.255e+7, -81.1
1.465e+2, -2.502e+6, -3.689e+7, 3.697e+7, -93.9
1.221e+2, -8.108e+6, -4.456e+7, 4.529e+7, -100.3
9.766e+1, -3.440e+6, -5.110e+7, 5.122e+7, -93.9
8.254e+1, 1.002e+7, -5.495e+7, 5.586e+7, -79.7
6.813e+1, 3.562e+7, -3.822e+7, 5.224e+7, -47.0
5.623e+1, 3.031e+7, -3.957e+7, 4.984e+7, -52.6
4.642e+1, 1.596e+7, -6.766e+7, 6.952e+7, -76.7
3.831e+1, 2.510e+7, -1.314e+8, 1.337e+8, -79.2
3.162e+1, 4.562e+7, -2.045e+8, 2.095e+8, -77.4
2.610e+1, 6.943e+7, -1.444e+8, 1.602e+8, -64.3
2.154e+1, 4.990e+7, -1.720e+8, 1.791e+8, -73.8
1.778e+1, 4.820e+7, -2.963e+8, 3.002e+8, -80.8
1.468e+1, 4.698e+7, -2.609e+8, 2.651e+8, -79.8
1.212e+1, 4.835e+7, -2.366e+8, 2.414e+8, -78.4
1.000e+1, -4.141e+7, -2.530e+8, 2.564e+8, -99.3
8.254e+0, -7.532e+7, -1.811e+8, 1.961e+8, -112.6
6.813e+0, 1.306e+6, -1.061e+8, 1.061e+8, -89.3
5.623e+0, 1.967e+7, -4.471e+7, 4.885e+7, -66.3
4.642e+0, 7.193e+8, 3.485e+8, 7.993e+8, 25.9
3.831e+0, 1.123e+9, 5.873e+8, 1.268e+9, 27.6
3.162e+0, 7.160e+8, 3.776e+8, 8.095e+8, 27.8
2.610e+0, 2.994e+8, -1.579e+8, 3.384e+8, -27.8
2.154e+0, -4.019e+7, -5.548e+8, 5.563e+8, -94.1
1.778e+0, -8.877e+7, -4.582e+8, 4.667e+8, -101.0
1.468e+0, -3.255e+7, -3.128e+8, 3.144e+8, -95.9
1.212e+0, 2.925e+8, -6.900e+8, 7.495e+8, -67.0
1.000e+0, 8.879e+7, -5.882e+8, 5.948e+8, -81.4
8.254e-1, 1.185e+7, -7.666e+8, 7.667e+8, -89.1
6.813e-1, 2.288e+8, -1.308e+9, 1.328e+9, -80.1
5.623e-1, -2.142e+7, -5.849e+8, 5.853e+8, -92.1
4.642e-1, -1.071e+9, -4.880e+6, 1.071e+9, -179.7
3.831e-1, -1.619e+9, -2.651e+8, 1.640e+9, -170.7
3.162e-1, -3.170e+8, -1.706e+9, 1.735e+9, -100.5
2.610e-1, -1.539e+9, -1.603e+9, 2.222e+9, -133.8
2.154e-1, -2.998e+9, 6.638e+8, 3.071e+9, 167.5
1.778e-1, -4.271e+9, 3.888e+9, 5.776e+9, 137.7
1.468e-1, -8.066e+9, 1.132e+10, 1.390e+10, 125.5
1.212e-1, -5.360e+9, 1.091e+10, 1.215e+10, 116.2
1.000e-1, 6.642e+9, -3.644e+9, 7.576e+9, -28.8
