Jan. 17, 2024   14:30:20
Cyclic Voltammetry
File: c:\users\lab\d3talesrobotics\roboticsui\robotics_api\workflows\actions\examples\cv.bin
Data Source:  Experiment
Instrument Model:  CHI650E
Header:  CV
Note: 

Init E (V) = 0
High E (V) = 1
Low E (V) = 0
Final E (V) = 0
Init P/N = P
Scan Rate (V/s) = 0.1
Segment = 2
Sample Interval (V) = 0.001
Quiet Time (sec) = 2
Sensitivity (A/V) = 1e-5
Comp R (ohm) = 10.0

Segment 1:
Ep = 0.796V
ip = -1.525e-5A
Ah = -1.054e-5C

Segment 2:
Ep = 0.713V
ip = 1.531e-5A
Ah = 1.069e-5C

Potential/V, Current/A

0.000, -5.224e-8
0.001, 2.165e-8
0.002, 8.654e-9
0.003, -5.654e-8
0.004, 5.817e-8
0.005, -5.312e-8
0.006, 2.072e-8
0.007, 8.890e-9
0.008, -5.729e-8
0.009, 5.793e-8
0.010, -5.299e-8
0.011, 2.001e-8
0.012, 9.283e-9
0.013, -5.775e-8
0.014, 5.758e-8
0.015, -5.304e-8
0.016, 1.915e-8
0.017, 9.696e-9
0.018, -5.820e-8
0.019, 5.736e-8
0.020, -5.296e-8
0.021, 1.834e-8
0.022, 1.010e-8
0.023, -5.884e-8
0.024, 5.720e-8
0.025, -5.271e-8
0.026, 1.781e-8
0.027, 1.061e-8
0.028, -5.930e-8
0.029, 5.701e-8
0.030, -5.274e-8
0.031, 1.714e-8
0.032, 1.119e-8
0.033, -5.965e-8
0.034, 5.675e-8
0.035, -5.259e-8
0.036, 1.645e-8
0.037, 1.164e-8
0.038, -6.016e-8
0.039, 5.668e-8
0.040, -5.249e-8
0.041, 1.577e-8
0.042, 1.207e-8
0.043, -6.050e-8
0.044, 5.642e-8
0.045, -5.234e-8
0.046, 1.493e-8
0.047, 1.281e-8
0.048, -6.115e-8
0.049, 5.627e-8
0.050, -5.229e-8
0.051, 1.436e-8
0.052, 1.322e-8
0.053, -6.158e-8
0.054, 5.599e-8
0.055, -5.194e-8
0.056, 1.351e-8
0.057, 1.373e-8
0.058, -6.190e-8
0.059, 5.576e-8
0.060, -5.191e-8
0.061, 1.292e-8
0.062, 1.435e-8
0.063, -6.225e-8
0.064, 5.556e-8
0.065, -5.176e-8
0.066, 1.225e-8
0.067, 1.479e-8
0.068, -6.253e-8
0.069, 5.532e-8
0.070, -5.154e-8
0.071, 1.153e-8
0.072, 1.526e-8
0.073, -6.301e-8
0.074, 5.518e-8
0.075, -5.131e-8
0.076, 1.101e-8
0.077, 1.562e-8
0.078, -6.322e-8
0.079, 5.479e-8
0.080, -5.133e-8
0.081, 1.031e-8
0.082, 1.619e-8
0.083, -6.368e-8
0.084, 5.468e-8
0.085, -5.108e-8
0.086, 9.568e-9
0.087, 1.670e-8
0.088, -6.391e-8
0.089, 5.459e-8
0.090, -5.110e-8
0.091, 8.792e-9
0.092, 1.719e-8
0.093, -6.423e-8
0.094, 5.422e-8
0.095, -5.083e-8
0.096, 8.124e-9
0.097, 1.772e-8
0.098, -6.481e-8
0.099, 5.393e-8
0.100, -5.058e-8
0.101, 7.308e-9
0.102, 1.820e-8
0.103, -6.498e-8
0.104, 5.377e-8
0.105, -5.054e-8
0.106, 6.669e-9
0.107, 1.870e-8
0.108, -6.541e-8
0.109, 5.354e-8
0.110, -5.035e-8
0.111, 6.090e-9
0.112, 1.912e-8
0.113, -6.589e-8
0.114, 5.326e-8
0.115, -5.013e-8
0.116, 5.255e-9
0.117, 1.962e-8
0.118, -6.603e-8
0.119, 5.308e-8
0.120, -5.013e-8
0.121, 4.567e-9
0.122, 2.011e-8
0.123, -6.639e-8
0.124, 5.274e-8
0.125, -5.009e-8
0.126, 4.076e-9
0.127, 2.043e-8
0.128, -6.700e-8
0.129, 5.249e-8
0.130, -4.982e-8
0.131, 3.290e-9
0.132, 2.081e-8
0.133, -6.722e-8
0.134, 5.219e-8
0.135, -4.965e-8
0.136, 2.602e-9
0.137, 2.117e-8
0.138, -6.767e-8
0.139, 5.186e-8
0.140, -4.948e-8
0.141, 1.796e-9
0.142, 2.170e-8
0.143, -6.795e-8
0.144, 5.140e-8
0.145, -4.941e-8
0.146, 1.118e-9
0.147, 2.211e-8
0.148, -6.838e-8
0.149, 5.117e-8
0.150, -4.930e-8
0.151, 4.696e-10
0.152, 2.239e-8
0.153, -6.870e-8
0.154, 5.075e-8
0.155, -4.915e-8
0.156, -2.476e-10
0.157, 2.261e-8
0.158, -6.907e-8
0.159, 5.035e-8
0.160, -4.924e-8
0.161, -1.034e-9
0.162, 2.286e-8
0.163, -6.938e-8
0.164, 4.997e-8
0.165, -4.917e-8
0.166, -1.672e-9
0.167, 2.319e-8
0.168, -6.970e-8
0.169, 4.957e-8
0.170, -4.884e-8
0.171, -2.419e-9
0.172, 2.359e-8
0.173, -7.018e-8
0.174, 4.926e-8
0.175, -4.906e-8
0.176, -3.333e-9
0.177, 2.384e-8
0.178, -7.071e-8
0.179, 4.878e-8
0.180, -4.894e-8
0.181, -4.138e-9
0.182, 2.413e-8
0.183, -7.104e-8
0.184, 4.836e-8
0.185, -4.904e-8
0.186, -4.738e-9
0.187, 2.441e-8
0.188, -7.155e-8
0.189, 4.789e-8
0.190, -4.901e-8
0.191, -5.593e-9
0.192, 2.443e-8
0.193, -7.184e-8
0.194, 4.744e-8
0.195, -4.909e-8
0.196, -6.418e-9
0.197, 2.469e-8
0.198, -7.217e-8
0.199, 4.680e-8
0.200, -4.919e-8
0.201, -7.292e-9
0.202, 2.491e-8
0.203, -7.275e-8
0.204, 4.631e-8
0.205, -4.932e-8
0.206, -8.157e-9
0.207, 2.483e-8
0.208, -7.321e-8
0.209, 4.573e-8
0.210, -4.923e-8
0.211, -9.061e-9
0.212, 2.491e-8
0.213, -7.379e-8
0.214, 4.517e-8
0.215, -4.941e-8
0.216, -9.867e-9
0.217, 2.496e-8
0.218, -7.426e-8
0.219, 4.471e-8
0.220, -4.933e-8
0.221, -1.078e-8
0.222, 2.501e-8
0.223, -7.457e-8
0.224, 4.415e-8
0.225, -4.935e-8
0.226, -1.165e-8
0.227, 2.503e-8
0.228, -7.524e-8
0.229, 4.356e-8
0.230, -4.940e-8
0.231, -1.261e-8
0.232, 2.500e-8
0.233, -7.557e-8
0.234, 4.295e-8
0.235, -4.959e-8
0.236, -1.341e-8
0.237, 2.495e-8
0.238, -7.611e-8
0.239, 4.248e-8
0.240, -4.956e-8
0.241, -1.441e-8
0.242, 2.503e-8
0.243, -7.659e-8
0.244, 4.196e-8
0.245, -4.968e-8
0.246, -1.536e-8
0.247, 2.512e-8
0.248, -7.701e-8
0.249, 4.121e-8
0.250, -4.974e-8
0.251, -1.635e-8
0.252, 2.523e-8
0.253, -7.760e-8
0.254, 4.067e-8
0.255, -4.975e-8
0.256, -1.737e-8
0.257, 2.504e-8
0.258, -7.799e-8
0.259, 4.012e-8
0.260, -4.995e-8
0.261, -1.821e-8
0.262, 2.509e-8
0.263, -7.852e-8
0.264, 3.950e-8
0.265, -4.986e-8
0.266, -1.903e-8
0.267, 2.509e-8
0.268, -7.897e-8
0.269, 3.887e-8
0.270, -4.988e-8
0.271, -2.001e-8
0.272, 2.516e-8
0.273, -7.937e-8
0.274, 3.834e-8
0.275, -5.003e-8
0.276, -2.090e-8
0.277, 2.499e-8
0.278, -7.986e-8
0.279, 3.773e-8
0.280, -5.001e-8
0.281, -2.177e-8
0.282, 2.496e-8
0.283, -8.034e-8
0.284, 3.726e-8
0.285, -5.016e-8
0.286, -2.265e-8
0.287, 2.510e-8
0.288, -8.074e-8
0.289, 3.659e-8
0.290, -5.032e-8
0.291, -2.326e-8
0.292, 2.487e-8
0.293, -8.108e-8
0.294, 3.612e-8
0.295, -5.026e-8
0.296, -2.414e-8
0.297, 2.501e-8
0.298, -8.142e-8
0.299, 3.549e-8
0.300, -5.012e-8
0.301, -2.492e-8
0.302, 2.502e-8
0.303, -8.180e-8
0.304, 3.493e-8
0.305, -5.022e-8
0.306, -2.594e-8
0.307, 2.489e-8
0.308, -8.213e-8
0.309, 3.446e-8
0.310, -5.030e-8
0.311, -2.681e-8
0.312, 2.498e-8
0.313, -8.252e-8
0.314, 3.396e-8
0.315, -5.033e-8
0.316, -2.766e-8
0.317, 2.484e-8
0.318, -8.262e-8
0.319, 3.332e-8
0.320, -5.019e-8
0.321, -2.861e-8
0.322, 2.497e-8
0.323, -8.306e-8
0.324, 3.275e-8
0.325, -5.004e-8
0.326, -2.948e-8
0.327, 2.496e-8
0.328, -8.337e-8
0.329, 3.222e-8
0.330, -4.991e-8
0.331, -3.031e-8
0.332, 2.518e-8
0.333, -8.374e-8
0.334, 3.187e-8
0.335, -4.978e-8
0.336, -3.123e-8
0.337, 2.516e-8
0.338, -8.388e-8
0.339, 3.125e-8
0.340, -4.974e-8
0.341, -3.209e-8
0.342, 2.506e-8
0.343, -8.417e-8
0.344, 3.076e-8
0.345, -4.950e-8
0.346, -3.290e-8
0.347, 2.504e-8
0.348, -8.436e-8
0.349, 3.010e-8
0.350, -4.939e-8
0.351, -3.360e-8
0.352, 2.513e-8
0.353, -8.468e-8
0.354, 2.998e-8
0.355, -4.947e-8
0.356, -3.460e-8
0.357, 2.534e-8
0.358, -8.515e-8
0.359, 2.940e-8
0.360, -4.921e-8
0.361, -3.543e-8
0.362, 2.525e-8
0.363, -8.539e-8
0.364, 2.894e-8
0.365, -4.917e-8
0.366, -3.634e-8
0.367, 2.547e-8
0.368, -8.548e-8
0.369, 2.839e-8
0.370, -4.886e-8
0.371, -3.721e-8
0.372, 2.533e-8
0.373, -8.566e-8
0.374, 2.790e-8
0.375, -4.883e-8
0.376, -3.777e-8
0.377, 2.542e-8
0.378, -8.597e-8
0.379, 2.757e-8
0.380, -4.868e-8
0.381, -3.886e-8
0.382, 2.554e-8
0.383, -8.622e-8
0.384, 2.675e-8
0.385, -4.845e-8
0.386, -3.961e-8
0.387, 2.546e-8
0.388, -8.650e-8
0.389, 2.639e-8
0.390, -4.824e-8
0.391, -4.053e-8
0.392, 2.562e-8
0.393, -8.681e-8
0.394, 2.581e-8
0.395, -4.807e-8
0.396, -4.145e-8
0.397, 2.554e-8
0.398, -8.693e-8
0.399, 2.521e-8
0.400, -4.785e-8
0.401, -4.210e-8
0.402, 2.547e-8
0.403, -8.719e-8
0.404, 2.483e-8
0.405, -4.779e-8
0.406, -4.301e-8
0.407, 2.558e-8
0.408, -8.741e-8
0.409, 2.417e-8
0.410, -4.770e-8
0.411, -4.416e-8
0.412, 2.550e-8
0.413, -8.772e-8
0.414, 2.371e-8
0.415, -4.756e-8
0.416, -4.508e-8
0.417, 2.530e-8
0.418, -8.810e-8
0.419, 2.278e-8
0.420, -4.724e-8
0.421, -4.612e-8
0.422, 2.555e-8
0.423, -8.824e-8
0.424, 2.235e-8
0.425, -4.737e-8
0.426, -4.709e-8
0.427, 2.525e-8
0.428, -8.875e-8
0.429, 2.164e-8
0.430, -4.737e-8
0.431, -4.825e-8
0.432, 2.508e-8
0.433, -8.912e-8
0.434, 2.094e-8
0.435, -4.743e-8
0.436, -4.930e-8
0.437, 2.488e-8
0.438, -8.951e-8
0.439, 2.020e-8
0.440, -4.750e-8
0.441, -5.038e-8
0.442, 2.464e-8
0.443, -9.008e-8
0.444, 1.915e-8
0.445, -4.766e-8
0.446, -5.147e-8
0.447, 2.411e-8
0.448, -9.071e-8
0.449, 1.841e-8
0.450, -4.805e-8
0.451, -5.302e-8
0.452, 2.370e-8
0.453, -9.124e-8
0.454, 1.731e-8
0.455, -4.844e-8
0.456, -5.420e-8
0.457, 2.320e-8
0.458, -9.206e-8
0.459, 1.619e-8
0.460, -4.879e-8
0.461, -5.590e-8
0.462, 2.251e-8
0.463, -9.277e-8
0.464, 1.511e-8
0.465, -4.937e-8
0.466, -5.746e-8
0.467, 2.170e-8
0.468, -9.389e-8
0.469, 1.368e-8
0.470, -4.992e-8
0.471, -5.894e-8
0.472, 2.076e-8
0.473, -9.501e-8
0.474, 1.217e-8
0.475, -5.093e-8
0.476, -6.083e-8
0.477, 1.962e-8
0.478, -9.598e-8
0.479, 1.055e-8
0.480, -5.175e-8
0.481, -6.288e-8
0.482, 1.866e-8
0.483, -9.733e-8
0.484, 8.703e-9
0.485, -5.278e-8
0.486, -6.481e-8
0.487, 1.697e-8
0.488, -9.881e-8
0.489, 6.650e-9
0.490, -5.397e-8
0.491, -6.724e-8
0.492, 1.528e-8
0.493, -1.007e-7
0.494, 4.655e-9
0.495, -5.555e-8
0.496, -6.971e-8
0.497, 1.380e-8
0.498, -1.025e-7
0.499, 2.346e-9
0.500, -5.702e-8
0.501, -7.231e-8
0.502, 1.194e-8
0.503, -1.045e-7
0.504, -1.297e-10
0.505, -5.875e-8
0.506, -7.497e-8
0.507, 9.922e-9
0.508, -1.067e-7
0.509, -2.665e-9
0.510, -6.064e-8
0.511, -7.803e-8
0.512, 7.554e-9
0.513, -1.090e-7
0.514, -5.396e-9
0.515, -6.270e-8
0.516, -8.121e-8
0.517, 5.549e-9
0.518, -1.113e-7
0.519, -8.108e-9
0.520, -6.471e-8
0.521, -8.412e-8
0.522, 3.348e-9
0.523, -1.136e-7
0.524, -1.078e-8
0.525, -6.699e-8
0.526, -8.709e-8
0.527, 9.118e-10
0.528, -1.162e-7
0.529, -1.377e-8
0.530, -6.930e-8
0.531, -9.032e-8
0.532, -1.672e-9
0.533, -1.188e-7
0.534, -1.671e-8
0.535, -7.142e-8
0.536, -9.359e-8
0.537, -4.109e-9
0.538, -1.213e-7
0.539, -1.971e-8
0.540, -7.353e-8
0.541, -9.682e-8
0.542, -6.496e-9
0.543, -1.239e-7
0.544, -2.286e-8
0.545, -7.617e-8
0.546, -1.002e-7
0.547, -9.385e-9
0.548, -1.268e-7
0.549, -2.617e-8
0.550, -7.883e-8
0.551, -1.038e-7
0.552, -1.232e-8
0.553, -1.298e-7
0.554, -2.970e-8
0.555, -8.166e-8
0.556, -1.074e-7
0.557, -1.539e-8
0.558, -1.329e-7
0.559, -3.349e-8
0.560, -8.479e-8
0.561, -1.117e-7
0.562, -1.927e-8
0.563, -1.368e-7
0.564, -3.790e-8
0.565, -8.851e-8
0.566, -1.166e-7
0.567, -2.342e-8
0.568, -1.412e-7
0.569, -4.302e-8
0.570, -9.309e-8
0.571, -1.221e-7
0.572, -2.843e-8
0.573, -1.463e-7
0.574, -4.862e-8
0.575, -9.824e-8
0.576, -1.284e-7
0.577, -3.413e-8
0.578, -1.522e-7
0.579, -5.531e-8
0.580, -1.044e-7
0.581, -1.358e-7
0.582, -4.124e-8
0.583, -1.598e-7
0.584, -6.358e-8
0.585, -1.121e-7
0.586, -1.449e-7
0.587, -4.982e-8
0.588, -1.687e-7
0.589, -7.362e-8
0.590, -1.215e-7
0.591, -1.557e-7
0.592, -6.035e-8
0.593, -1.793e-7
0.594, -8.500e-8
0.595, -1.327e-7
0.596, -1.681e-7
0.597, -7.245e-8
0.598, -1.922e-7
0.599, -9.878e-8
0.600, -1.464e-7
0.601, -1.833e-7
0.602, -8.803e-8
0.603, -2.081e-7
0.604, -1.160e-7
0.605, -1.635e-7
0.606, -2.018e-7
0.607, -1.065e-7
0.608, -2.272e-7
0.609, -1.364e-7
0.610, -1.840e-7
0.611, -2.240e-7
0.612, -1.289e-7
0.613, -2.504e-7
0.614, -1.614e-7
0.615, -2.091e-7
0.616, -2.506e-7
0.617, -1.560e-7
0.618, -2.787e-7
0.619, -1.906e-7
0.620, -2.388e-7
0.621, -2.827e-7
0.622, -1.888e-7
0.623, -3.128e-7
0.624, -2.267e-7
0.625, -2.755e-7
0.626, -3.218e-7
0.627, -2.289e-7
0.628, -3.539e-7
0.629, -2.699e-7
0.630, -3.195e-7
0.631, -3.683e-7
0.632, -2.764e-7
0.633, -4.031e-7
0.634, -3.218e-7
0.635, -3.721e-7
0.636, -4.240e-7
0.637, -3.337e-7
0.638, -4.622e-7
0.639, -3.842e-7
0.640, -4.364e-7
0.641, -4.914e-7
0.642, -4.034e-7
0.643, -5.347e-7
0.644, -4.597e-7
0.645, -5.134e-7
0.646, -5.724e-7
0.647, -4.872e-7
0.648, -6.205e-7
0.649, -5.495e-7
0.650, -6.065e-7
0.651, -6.692e-7
0.652, -5.864e-7
0.653, -7.251e-7
0.654, -6.568e-7
0.655, -7.164e-7
0.656, -7.847e-7
0.657, -7.052e-7
0.658, -8.480e-7
0.659, -7.858e-7
0.660, -8.498e-7
0.661, -9.236e-7
0.662, -8.486e-7
0.663, -9.970e-7
0.664, -9.397e-7
0.665, -1.009e-6
0.666, -1.091e-6
0.667, -1.019e-6
0.668, -1.173e-6
0.669, -1.124e-6
0.670, -1.196e-6
0.671, -1.285e-6
0.672, -1.221e-6
0.673, -1.380e-6
0.674, -1.340e-6
0.675, -1.418e-6
0.676, -1.516e-6
0.677, -1.458e-6
0.678, -1.627e-6
0.679, -1.596e-6
0.680, -1.680e-6
0.681, -1.787e-6
0.682, -1.741e-6
0.683, -1.915e-6
0.684, -1.897e-6
0.685, -1.990e-6
0.686, -2.106e-6
0.687, -2.070e-6
0.688, -2.254e-6
0.689, -2.245e-6
0.690, -2.350e-6
0.691, -2.479e-6
0.692, -2.452e-6
0.693, -2.646e-6
0.694, -2.648e-6
0.695, -2.764e-6
0.696, -2.904e-6
0.697, -2.891e-6
0.698, -3.100e-6
0.699, -3.115e-6
0.700, -3.243e-6
0.701, -3.398e-6
0.702, -3.396e-6
0.703, -3.619e-6
0.704, -3.647e-6
0.705, -3.785e-6
0.706, -3.954e-6
0.707, -3.965e-6
0.708, -4.201e-6
0.709, -4.244e-6
0.710, -4.397e-6
0.711, -4.584e-6
0.712, -4.600e-6
0.713, -4.850e-6
0.714, -4.910e-6
0.715, -5.070e-6
0.716, -5.274e-6
0.717, -5.316e-6
0.718, -5.570e-6
0.719, -5.646e-6
0.720, -5.817e-6
0.721, -6.033e-6
0.722, -6.080e-6
0.723, -6.352e-6
0.724, -6.440e-6
0.725, -6.617e-6
0.726, -6.843e-6
0.727, -6.906e-6
0.728, -7.180e-6
0.729, -7.282e-6
0.730, -7.474e-6
0.731, -7.702e-6
0.732, -7.769e-6
0.733, -8.051e-6
0.734, -8.157e-6
0.735, -8.354e-6
0.736, -8.595e-6
0.737, -8.664e-6
0.738, -8.954e-6
0.739, -9.066e-6
0.740, -9.270e-6
0.741, -9.511e-6
0.742, -9.586e-6
0.743, -9.881e-6
0.744, -9.978e-6
0.745, -1.018e-5
0.746, -1.042e-5
0.747, -1.048e-5
0.748, -1.078e-5
0.749, -1.088e-5
0.750, -1.107e-5
0.751, -1.131e-5
0.752, -1.135e-5
0.753, -1.164e-5
0.754, -1.172e-5
0.755, -1.190e-5
0.756, -1.213e-5
0.757, -1.217e-5
0.758, -1.245e-5
0.759, -1.253e-5
0.760, -1.269e-5
0.761, -1.291e-5
0.762, -1.294e-5
0.763, -1.319e-5
0.764, -1.326e-5
0.765, -1.340e-5
0.766, -1.360e-5
0.767, -1.361e-5
0.768, -1.384e-5
0.769, -1.389e-5
0.770, -1.400e-5
0.771, -1.417e-5
0.772, -1.416e-5
0.773, -1.436e-5
0.774, -1.439e-5
0.775, -1.450e-5
0.776, -1.464e-5
0.777, -1.461e-5
0.778, -1.480e-5
0.779, -1.481e-5
0.780, -1.489e-5
0.781, -1.503e-5
0.782, -1.497e-5
0.783, -1.513e-5
0.784, -1.512e-5
0.785, -1.517e-5
0.786, -1.528e-5
0.787, -1.520e-5
0.788, -1.534e-5
0.789, -1.529e-5
0.790, -1.533e-5
0.791, -1.542e-5
0.792, -1.531e-5
0.793, -1.544e-5
0.794, -1.538e-5
0.795, -1.540e-5
0.796, -1.547e-5
0.797, -1.536e-5
0.798, -1.547e-5
0.799, -1.540e-5
0.800, -1.541e-5
0.801, -1.547e-5
0.802, -1.534e-5
0.803, -1.544e-5
0.804, -1.535e-5
0.805, -1.534e-5
0.806, -1.539e-5
0.807, -1.525e-5
0.808, -1.532e-5
0.809, -1.523e-5
0.810, -1.520e-5
0.811, -1.523e-5
0.812, -1.508e-5
0.813, -1.515e-5
0.814, -1.504e-5
0.815, -1.502e-5
0.816, -1.505e-5
0.817, -1.490e-5
0.818, -1.497e-5
0.819, -1.489e-5
0.820, -1.485e-5
0.821, -1.488e-5
0.822, -1.472e-5
0.823, -1.479e-5
0.824, -1.468e-5
0.825, -1.464e-5
0.826, -1.467e-5
0.827, -1.450e-5
0.828, -1.456e-5
0.829, -1.444e-5
0.830, -1.439e-5
0.831, -1.441e-5
0.832, -1.425e-5
0.833, -1.431e-5
0.834, -1.419e-5
0.835, -1.415e-5
0.836, -1.419e-5
0.837, -1.403e-5
0.838, -1.410e-5
0.839, -1.399e-5
0.840, -1.395e-5
0.841, -1.399e-5
0.842, -1.383e-5
0.843, -1.390e-5
0.844, -1.379e-5
0.845, -1.375e-5
0.846, -1.378e-5
0.847, -1.361e-5
0.848, -1.367e-5
0.849, -1.355e-5
0.850, -1.350e-5
0.851, -1.353e-5
0.852, -1.337e-5
0.853, -1.343e-5
0.854, -1.333e-5
0.855, -1.329e-5
0.856, -1.333e-5
0.857, -1.319e-5
0.858, -1.326e-5
0.859, -1.317e-5
0.860, -1.313e-5
0.861, -1.318e-5
0.862, -1.302e-5
0.863, -1.310e-5
0.864, -1.300e-5
0.865, -1.295e-5
0.866, -1.299e-5
0.867, -1.284e-5
0.868, -1.290e-5
0.869, -1.280e-5
0.870, -1.275e-5
0.871, -1.280e-5
0.872, -1.264e-5
0.873, -1.271e-5
0.874, -1.262e-5
0.875, -1.259e-5
0.876, -1.264e-5
0.877, -1.250e-5
0.878, -1.258e-5
0.879, -1.250e-5
0.880, -1.247e-5
0.881, -1.252e-5
0.882, -1.238e-5
0.883, -1.246e-5
0.884, -1.237e-5
0.885, -1.233e-5
0.886, -1.238e-5
0.887, -1.223e-5
0.888, -1.230e-5
0.889, -1.221e-5
0.890, -1.217e-5
0.891, -1.222e-5
0.892, -1.208e-5
0.893, -1.216e-5
0.894, -1.208e-5
0.895, -1.205e-5
0.896, -1.211e-5
0.897, -1.197e-5
0.898, -1.206e-5
0.899, -1.198e-5
0.900, -1.196e-5
0.901, -1.202e-5
0.902, -1.189e-5
0.903, -1.197e-5
0.904, -1.189e-5
0.905, -1.185e-5
0.906, -1.191e-5
0.907, -1.177e-5
0.908, -1.184e-5
0.909, -1.176e-5
0.910, -1.172e-5
0.911, -1.179e-5
0.912, -1.165e-5
0.913, -1.173e-5
0.914, -1.165e-5
0.915, -1.162e-5
0.916, -1.169e-5
0.917, -1.156e-5
0.918, -1.166e-5
0.919, -1.160e-5
0.920, -1.158e-5
0.921, -1.166e-5
0.922, -1.153e-5
0.923, -1.162e-5
0.924, -1.154e-5
0.925, -1.150e-5
0.926, -1.155e-5
0.927, -1.141e-5
0.928, -1.148e-5
0.929, -1.141e-5
0.930, -1.137e-5
0.931, -1.145e-5
0.932, -1.131e-5
0.933, -1.141e-5
0.934, -1.134e-5
0.935, -1.131e-5
0.936, -1.139e-5
0.937, -1.126e-5
0.938, -1.136e-5
0.939, -1.130e-5
0.940, -1.128e-5
0.941, -1.137e-5
0.942, -1.124e-5
0.943, -1.133e-5
0.944, -1.126e-5
0.945, -1.122e-5
0.946, -1.127e-5
0.947, -1.112e-5
0.948, -1.120e-5
0.949, -1.113e-5
0.950, -1.110e-5
0.951, -1.118e-5
0.952, -1.106e-5
0.953, -1.116e-5
0.954, -1.111e-5
0.955, -1.108e-5
0.956, -1.117e-5
0.957, -1.104e-5
0.958, -1.113e-5
0.959, -1.108e-5
0.960, -1.105e-5
0.961, -1.114e-5
0.962, -1.101e-5
0.963, -1.110e-5
0.964, -1.104e-5
0.965, -1.099e-5
0.966, -1.105e-5
0.967, -1.091e-5
0.968, -1.099e-5
0.969, -1.093e-5
0.970, -1.089e-5
0.971, -1.098e-5
0.972, -1.086e-5
0.973, -1.096e-5
0.974, -1.091e-5
0.975, -1.089e-5
0.976, -1.098e-5
0.977, -1.087e-5
0.978, -1.097e-5
0.979, -1.092e-5
0.980, -1.089e-5
0.981, -1.098e-5
0.982, -1.085e-5
0.983, -1.093e-5
0.984, -1.086e-5
0.985, -1.081e-5
0.986, -1.088e-5
0.987, -1.074e-5
0.988, -1.082e-5
0.989, -1.076e-5
0.990, -1.072e-5
0.991, -1.082e-5
0.992, -1.070e-5
0.993, -1.080e-5
0.994, -1.076e-5
0.995, -1.073e-5
0.996, -1.084e-5
0.997, -1.073e-5
0.998, -1.084e-5
0.999, -1.081e-5
1.000, -1.077e-5
0.999, -1.085e-5
0.998, -1.071e-5
0.997, -1.078e-5
0.996, -1.070e-5
0.995, -1.063e-5
0.994, -1.069e-5
0.993, -1.055e-5
0.992, -1.063e-5
0.991, -1.058e-5
0.990, -1.054e-5
0.989, -1.064e-5
0.988, -1.053e-5
0.987, -1.064e-5
0.986, -1.061e-5
0.985, -1.059e-5
0.984, -1.070e-5
0.983, -1.059e-5
0.982, -1.069e-5
0.981, -1.065e-5
0.980, -1.061e-5
0.979, -1.070e-5
0.978, -1.057e-5
0.977, -1.063e-5
0.976, -1.056e-5
0.975, -1.049e-5
0.974, -1.057e-5
0.973, -1.042e-5
0.972, -1.050e-5
0.971, -1.046e-5
0.970, -1.041e-5
0.969, -1.051e-5
0.968, -1.040e-5
0.967, -1.050e-5
0.966, -1.049e-5
0.965, -1.047e-5
0.964, -1.060e-5
0.963, -1.051e-5
0.962, -1.062e-5
0.961, -1.058e-5
0.960, -1.051e-5
0.959, -1.058e-5
0.958, -1.042e-5
0.957, -1.048e-5
0.956, -1.042e-5
0.955, -1.037e-5
0.954, -1.047e-5
0.953, -1.035e-5
0.952, -1.043e-5
0.951, -1.038e-5
0.950, -1.032e-5
0.949, -1.041e-5
0.948, -1.028e-5
0.947, -1.037e-5
0.946, -1.036e-5
0.945, -1.036e-5
0.944, -1.050e-5
0.943, -1.042e-5
0.942, -1.052e-5
0.941, -1.048e-5
0.940, -1.041e-5
0.939, -1.048e-5
0.938, -1.033e-5
0.937, -1.039e-5
0.936, -1.034e-5
0.935, -1.028e-5
0.934, -1.038e-5
0.933, -1.025e-5
0.932, -1.033e-5
0.931, -1.028e-5
0.930, -1.021e-5
0.929, -1.030e-5
0.928, -1.018e-5
0.927, -1.027e-5
0.926, -1.026e-5
0.925, -1.025e-5
0.924, -1.040e-5
0.923, -1.032e-5
0.922, -1.043e-5
0.921, -1.041e-5
0.920, -1.035e-5
0.919, -1.043e-5
0.918, -1.027e-5
0.917, -1.032e-5
0.916, -1.026e-5
0.915, -1.018e-5
0.914, -1.027e-5
0.913, -1.014e-5
0.912, -1.020e-5
0.911, -1.016e-5
0.910, -1.009e-5
0.909, -1.020e-5
0.908, -1.008e-5
0.907, -1.019e-5
0.906, -1.019e-5
0.905, -1.017e-5
0.904, -1.031e-5
0.903, -1.022e-5
0.902, -1.032e-5
0.901, -1.029e-5
0.900, -1.023e-5
0.899, -1.031e-5
0.898, -1.017e-5
0.897, -1.022e-5
0.896, -1.016e-5
0.895, -1.007e-5
0.894, -1.013e-5
0.893, -9.979e-6
0.892, -1.003e-5
0.891, -9.993e-6
0.890, -9.936e-6
0.889, -1.005e-5
0.888, -9.958e-6
0.887, -1.007e-5
0.886, -1.008e-5
0.885, -1.005e-5
0.884, -1.017e-5
0.883, -1.006e-5
0.882, -1.013e-5
0.881, -1.010e-5
0.880, -1.002e-5
0.879, -1.011e-5
0.878, -9.968e-6
0.877, -1.002e-5
0.876, -9.976e-6
0.875, -9.881e-6
0.874, -9.945e-6
0.873, -9.782e-6
0.872, -9.821e-6
0.871, -9.771e-6
0.870, -9.693e-6
0.869, -9.797e-6
0.868, -9.690e-6
0.867, -9.787e-6
0.866, -9.796e-6
0.865, -9.759e-6
0.864, -9.884e-6
0.863, -9.773e-6
0.862, -9.840e-6
0.861, -9.804e-6
0.860, -9.717e-6
0.859, -9.798e-6
0.858, -9.650e-6
0.857, -9.684e-6
0.856, -9.622e-6
0.855, -9.500e-6
0.854, -9.549e-6
0.853, -9.378e-6
0.852, -9.402e-6
0.851, -9.347e-6
0.850, -9.251e-6
0.849, -9.339e-6
0.848, -9.212e-6
0.847, -9.284e-6
0.846, -9.280e-6
0.845, -9.227e-6
0.844, -9.349e-6
0.843, -9.238e-6
0.842, -9.298e-6
0.841, -9.254e-6
0.840, -9.138e-6
0.839, -9.184e-6
0.838, -8.994e-6
0.837, -8.985e-6
0.836, -8.890e-6
0.835, -8.739e-6
0.834, -8.770e-6
0.833, -8.580e-6
0.832, -8.581e-6
0.831, -8.511e-6
0.830, -8.388e-6
0.829, -8.458e-6
0.828, -8.309e-6
0.827, -8.354e-6
0.826, -8.325e-6
0.825, -8.232e-6
0.824, -8.320e-6
0.823, -8.172e-6
0.822, -8.190e-6
0.821, -8.116e-6
0.820, -7.953e-6
0.819, -7.941e-6
0.818, -7.715e-6
0.817, -7.654e-6
0.816, -7.524e-6
0.815, -7.325e-6
0.814, -7.322e-6
0.813, -7.102e-6
0.812, -7.066e-6
0.811, -6.975e-6
0.810, -6.810e-6
0.809, -6.833e-6
0.808, -6.644e-6
0.807, -6.623e-6
0.806, -6.541e-6
0.805, -6.386e-6
0.804, -6.413e-6
0.803, -6.216e-6
0.802, -6.175e-6
0.801, -6.056e-6
0.800, -5.842e-6
0.799, -5.800e-6
0.798, -5.526e-6
0.797, -5.410e-6
0.796, -5.227e-6
0.795, -4.981e-6
0.794, -4.918e-6
0.793, -4.641e-6
0.792, -4.547e-6
0.791, -4.401e-6
0.790, -4.179e-6
0.789, -4.158e-6
0.788, -3.918e-6
0.787, -3.844e-6
0.786, -3.718e-6
0.785, -3.503e-6
0.784, -3.481e-6
0.783, -3.227e-6
0.782, -3.135e-6
0.781, -2.974e-6
0.780, -2.708e-6
0.779, -2.629e-6
0.778, -2.310e-6
0.777, -2.141e-6
0.776, -1.938e-6
0.775, -1.632e-6
0.774, -1.533e-6
0.773, -1.231e-6
0.772, -1.092e-6
0.771, -9.324e-7
0.770, -6.748e-7
0.769, -6.276e-7
0.768, -3.594e-7
0.767, -2.610e-7
0.766, -1.285e-7
0.765, 1.083e-7
0.764, 1.490e-7
0.763, 4.008e-7
0.762, 5.252e-7
0.761, 6.923e-7
0.760, 9.627e-7
0.759, 1.050e-6
0.758, 1.355e-6
0.757, 1.508e-6
0.756, 1.700e-6
0.755, 1.984e-6
0.754, 2.058e-6
0.753, 2.336e-6
0.752, 2.444e-6
0.751, 2.579e-6
0.750, 2.797e-6
0.749, 2.808e-6
0.748, 3.027e-6
0.747, 3.078e-6
0.746, 3.173e-6
0.745, 3.374e-6
0.744, 3.357e-6
0.743, 3.583e-6
0.742, 3.655e-6
0.741, 3.754e-6
0.740, 3.981e-6
0.739, 3.985e-6
0.738, 4.220e-6
0.737, 4.300e-6
0.736, 4.403e-6
0.735, 4.611e-6
0.734, 4.592e-6
0.733, 4.787e-6
0.732, 4.823e-6
0.731, 4.860e-6
0.730, 5.012e-6
0.729, 4.939e-6
0.728, 5.071e-6
0.727, 5.055e-6
0.726, 5.060e-6
0.725, 5.168e-6
0.724, 5.082e-6
0.723, 5.209e-6
0.722, 5.193e-6
0.721, 5.211e-6
0.720, 5.338e-6
0.719, 5.266e-6
0.718, 5.404e-6
0.717, 5.407e-6
0.716, 5.419e-6
0.715, 5.529e-6
0.714, 5.432e-6
0.713, 5.542e-6
0.712, 5.486e-6
0.711, 5.455e-6
0.710, 5.525e-6
0.709, 5.379e-6
0.708, 5.444e-6
0.707, 5.354e-6
0.706, 5.289e-6
0.705, 5.345e-6
0.704, 5.194e-6
0.703, 5.267e-6
0.702, 5.195e-6
0.701, 5.153e-6
0.700, 5.236e-6
0.699, 5.104e-6
0.698, 5.194e-6
0.697, 5.133e-6
0.696, 5.087e-6
0.695, 5.158e-6
0.694, 5.012e-6
0.693, 5.072e-6
0.692, 4.983e-6
0.691, 4.905e-6
0.690, 4.942e-6
0.689, 4.766e-6
0.688, 4.798e-6
0.687, 4.689e-6
0.686, 4.600e-6
0.685, 4.641e-6
0.684, 4.479e-6
0.683, 4.533e-6
0.682, 4.454e-6
0.681, 4.397e-6
0.680, 4.461e-6
0.679, 4.319e-6
0.678, 4.386e-6
0.677, 4.305e-6
0.676, 4.242e-6
0.675, 4.295e-6
0.674, 4.134e-6
0.673, 4.183e-6
0.672, 4.085e-6
0.671, 4.000e-6
0.670, 4.039e-6
0.669, 3.865e-6
0.668, 3.905e-6
0.667, 3.803e-6
0.666, 3.723e-6
0.665, 3.774e-6
0.664, 3.614e-6
0.663, 3.675e-6
0.662, 3.598e-6
0.661, 3.534e-6
0.660, 3.604e-6
0.659, 3.456e-6
0.658, 3.521e-6
0.657, 3.443e-6
0.656, 3.374e-6
0.655, 3.435e-6
0.654, 3.277e-6
0.653, 3.332e-6
0.652, 3.245e-6
0.651, 3.166e-6
0.650, 3.220e-6
0.649, 3.059e-6
0.648, 3.108e-6
0.647, 3.022e-6
0.646, 2.946e-6
0.645, 3.008e-6
0.644, 2.858e-6
0.643, 2.923e-6
0.642, 2.854e-6
0.641, 2.794e-6
0.640, 2.872e-6
0.639, 2.732e-6
0.638, 2.802e-6
0.637, 2.735e-6
0.636, 2.670e-6
0.635, 2.739e-6
0.634, 2.589e-6
0.633, 2.648e-6
0.632, 2.571e-6
0.631, 2.498e-6
0.630, 2.564e-6
0.629, 2.412e-6
0.628, 2.473e-6
0.627, 2.400e-6
0.626, 2.332e-6
0.625, 2.407e-6
0.624, 2.267e-6
0.623, 2.338e-6
0.622, 2.279e-6
0.621, 2.222e-6
0.620, 2.309e-6
0.619, 2.176e-6
0.618, 2.249e-6
0.617, 2.190e-6
0.616, 2.125e-6
0.615, 2.203e-6
0.614, 2.058e-6
0.613, 2.120e-6
0.612, 2.052e-6
0.611, 1.981e-6
0.610, 2.057e-6
0.609, 1.915e-6
0.608, 1.983e-6
0.607, 1.926e-6
0.606, 1.866e-6
0.605, 1.955e-6
0.604, 1.825e-6
0.603, 1.901e-6
0.602, 1.850e-6
0.601, 1.792e-6
0.600, 1.880e-6
0.599, 1.747e-6
0.598, 1.819e-6
0.597, 1.765e-6
0.596, 1.701e-6
0.595, 1.786e-6
0.594, 1.648e-6
0.593, 1.716e-6
0.592, 1.660e-6
0.591, 1.594e-6
0.590, 1.680e-6
0.589, 1.547e-6
0.588, 1.621e-6
0.587, 1.573e-6
0.586, 1.515e-6
0.585, 1.610e-6
0.584, 1.483e-6
0.583, 1.560e-6
0.582, 1.515e-6
0.581, 1.455e-6
0.580, 1.548e-6
0.579, 1.417e-6
0.578, 1.489e-6
0.577, 1.441e-6
0.576, 1.378e-6
0.575, 1.469e-6
0.574, 1.339e-6
0.573, 1.411e-6
0.572, 1.365e-6
0.571, 1.302e-6
0.570, 1.397e-6
0.569, 1.269e-6
0.568, 1.344e-6
0.567, 1.303e-6
0.566, 1.244e-6
0.565, 1.343e-6
0.564, 1.219e-6
0.563, 1.294e-6
0.562, 1.254e-6
0.561, 1.192e-6
0.560, 1.289e-6
0.559, 1.162e-6
0.558, 1.236e-6
0.557, 1.197e-6
0.556, 1.134e-6
0.555, 1.233e-6
0.554, 1.107e-6
0.553, 1.180e-6
0.552, 1.141e-6
0.551, 1.078e-6
0.550, 1.177e-6
0.549, 1.052e-6
0.548, 1.128e-6
0.547, 1.093e-6
0.546, 1.033e-6
0.545, 1.135e-6
0.544, 1.013e-6
0.543, 1.087e-6
0.542, 1.052e-6
0.541, 9.883e-7
0.540, 1.090e-6
0.539, 9.672e-7
0.538, 1.042e-6
0.537, 1.009e-6
0.536, 9.459e-7
0.535, 1.049e-6
0.534, 9.264e-7
0.533, 9.996e-7
0.532, 9.667e-7
0.531, 9.009e-7
0.530, 1.004e-6
0.529, 8.812e-7
0.528, 9.550e-7
0.527, 9.259e-7
0.526, 8.633e-7
0.525, 9.698e-7
0.524, 8.500e-7
0.523, 9.246e-7
0.522, 8.960e-7
0.521, 8.304e-7
0.520, 9.355e-7
0.519, 8.142e-7
0.518, 8.868e-7
0.517, 8.589e-7
0.516, 7.930e-7
0.515, 8.988e-7
0.514, 7.784e-7
0.513, 8.506e-7
0.512, 8.240e-7
0.511, 7.567e-7
0.510, 8.633e-7
0.509, 7.444e-7
0.508, 8.179e-7
0.507, 7.949e-7
0.506, 7.293e-7
0.505, 8.381e-7
0.504, 7.200e-7
0.503, 7.919e-7
0.502, 7.683e-7
0.501, 6.998e-7
0.500, 8.064e-7
0.499, 6.871e-7
0.498, 7.570e-7
0.497, 7.345e-7
0.496, 6.655e-7
0.495, 7.738e-7
0.494, 6.566e-7
0.493, 7.277e-7
0.492, 7.080e-7
0.491, 6.400e-7
0.490, 7.502e-7
0.489, 6.343e-7
0.488, 7.055e-7
0.487, 6.874e-7
0.486, 6.184e-7
0.485, 7.281e-7
0.484, 6.116e-7
0.483, 6.805e-7
0.482, 6.616e-7
0.481, 5.900e-7
0.480, 6.982e-7
0.479, 5.805e-7
0.478, 6.480e-7
0.477, 6.307e-7
0.476, 5.598e-7
0.475, 6.712e-7
0.474, 5.570e-7
0.473, 6.271e-7
0.472, 6.135e-7
0.471, 5.433e-7
0.470, 6.558e-7
0.469, 5.413e-7
0.468, 6.094e-7
0.467, 5.956e-7
0.466, 5.229e-7
0.465, 6.344e-7
0.464, 5.193e-7
0.463, 5.861e-7
0.462, 5.732e-7
0.461, 4.989e-7
0.460, 6.100e-7
0.459, 4.938e-7
0.458, 5.589e-7
0.457, 5.470e-7
0.456, 4.723e-7
0.455, 5.855e-7
0.454, 4.730e-7
0.453, 5.409e-7
0.452, 5.337e-7
0.451, 4.606e-7
0.450, 5.755e-7
0.449, 4.626e-7
0.448, 5.279e-7
0.447, 5.196e-7
0.446, 4.431e-7
0.445, 5.566e-7
0.444, 4.435e-7
0.443, 5.075e-7
0.442, 5.003e-7
0.441, 4.227e-7
0.440, 5.353e-7
0.439, 4.211e-7
0.438, 4.832e-7
0.437, 4.768e-7
0.436, 3.987e-7
0.435, 5.137e-7
0.434, 4.032e-7
0.433, 4.689e-7
0.432, 4.678e-7
0.431, 3.921e-7
0.430, 5.088e-7
0.429, 3.983e-7
0.428, 4.608e-7
0.427, 4.573e-7
0.426, 3.770e-7
0.425, 4.909e-7
0.424, 3.787e-7
0.423, 4.397e-7
0.422, 4.376e-7
0.421, 3.572e-7
0.420, 4.718e-7
0.419, 3.607e-7
0.418, 4.211e-7
0.417, 4.204e-7
0.416, 3.396e-7
0.415, 4.554e-7
0.414, 3.467e-7
0.413, 4.088e-7
0.412, 4.123e-7
0.411, 3.333e-7
0.410, 4.511e-7
0.409, 3.432e-7
0.408, 4.029e-7
0.407, 4.050e-7
0.406, 3.219e-7
0.405, 4.361e-7
0.404, 3.257e-7
0.403, 3.830e-7
0.402, 3.858e-7
0.401, 3.024e-7
0.400, 4.181e-7
0.399, 3.099e-7
0.398, 3.680e-7
0.397, 3.736e-7
0.396, 2.909e-7
0.395, 4.076e-7
0.394, 3.008e-7
0.393, 3.590e-7
0.392, 3.666e-7
0.391, 2.840e-7
0.390, 4.014e-7
0.389, 2.955e-7
0.388, 3.522e-7
0.387, 3.599e-7
0.386, 2.743e-7
0.385, 3.898e-7
0.384, 2.817e-7
0.383, 3.359e-7
0.382, 3.440e-7
0.381, 2.573e-7
0.380, 3.739e-7
0.379, 2.677e-7
0.378, 3.230e-7
0.377, 3.342e-7
0.376, 2.484e-7
0.375, 3.663e-7
0.374, 2.613e-7
0.373, 3.160e-7
0.372, 3.287e-7
0.371, 2.421e-7
0.370, 3.600e-7
0.369, 2.556e-7
0.368, 3.091e-7
0.367, 3.225e-7
0.366, 2.340e-7
0.365, 3.507e-7
0.364, 2.448e-7
0.363, 2.958e-7
0.362, 3.093e-7
0.361, 2.194e-7
0.360, 3.365e-7
0.359, 2.325e-7
0.358, 2.843e-7
0.357, 3.008e-7
0.356, 2.119e-7
0.355, 3.306e-7
0.354, 2.279e-7
0.353, 2.791e-7
0.352, 2.969e-7
0.351, 2.069e-7
0.350, 3.251e-7
0.349, 2.225e-7
0.348, 2.724e-7
0.347, 2.907e-7
0.346, 1.992e-7
0.345, 3.167e-7
0.344, 2.134e-7
0.343, 2.615e-7
0.342, 2.803e-7
0.341, 1.875e-7
0.340, 3.051e-7
0.339, 2.031e-7
0.338, 2.510e-7
0.337, 2.726e-7
0.336, 1.804e-7
0.335, 2.997e-7
0.334, 1.991e-7
0.333, 2.473e-7
0.332, 2.702e-7
0.331, 1.773e-7
0.330, 2.959e-7
0.329, 1.954e-7
0.328, 2.416e-7
0.327, 2.647e-7
0.326, 1.700e-7
0.325, 2.878e-7
0.324, 1.870e-7
0.323, 2.316e-7
0.322, 2.556e-7
0.321, 1.600e-7
0.320, 2.777e-7
0.319, 1.779e-7
0.318, 2.226e-7
0.317, 2.487e-7
0.316, 1.540e-7
0.315, 2.733e-7
0.314, 1.751e-7
0.313, 2.198e-7
0.312, 2.480e-7
0.311, 1.520e-7
0.310, 2.709e-7
0.309, 1.723e-7
0.308, 2.151e-7
0.307, 2.432e-7
0.306, 1.452e-7
0.305, 2.631e-7
0.304, 1.646e-7
0.303, 2.059e-7
0.302, 2.348e-7
0.301, 1.365e-7
0.300, 2.543e-7
0.299, 1.569e-7
0.298, 1.978e-7
0.297, 2.292e-7
0.296, 1.315e-7
0.295, 2.509e-7
0.294, 1.549e-7
0.293, 1.963e-7
0.292, 2.291e-7
0.291, 1.305e-7
0.290, 2.492e-7
0.289, 1.526e-7
0.288, 1.920e-7
0.287, 2.244e-7
0.286, 1.239e-7
0.285, 2.419e-7
0.284, 1.454e-7
0.283, 1.835e-7
0.282, 2.172e-7
0.281, 1.163e-7
0.280, 2.347e-7
0.279, 1.392e-7
0.278, 1.770e-7
0.277, 2.128e-7
0.276, 1.125e-7
0.275, 2.316e-7
0.274, 1.378e-7
0.273, 1.755e-7
0.272, 2.127e-7
0.271, 1.118e-7
0.270, 2.303e-7
0.269, 1.362e-7
0.268, 1.717e-7
0.267, 2.086e-7
0.266, 1.059e-7
0.265, 2.235e-7
0.264, 1.296e-7
0.263, 1.637e-7
0.262, 2.020e-7
0.261, 9.913e-8
0.260, 2.174e-7
0.259, 1.249e-7
0.258, 1.587e-7
0.257, 1.992e-7
0.256, 9.664e-8
0.255, 2.151e-7
0.254, 1.239e-7
0.253, 1.572e-7
0.252, 1.989e-7
0.251, 9.520e-8
0.250, 2.135e-7
0.249, 1.221e-7
0.248, 1.537e-7
0.247, 1.952e-7
0.246, 9.042e-8
0.245, 2.077e-7
0.244, 1.165e-7
0.243, 1.467e-7
0.242, 1.897e-7
0.241, 8.490e-8
0.240, 2.024e-7
0.239, 1.127e-7
0.238, 1.428e-7
0.237, 1.876e-7
0.236, 8.266e-8
0.235, 2.007e-7
0.234, 1.118e-7
0.233, 1.410e-7
0.232, 1.866e-7
0.231, 8.093e-8
0.230, 1.988e-7
0.229, 1.100e-7
0.228, 1.375e-7
0.227, 1.838e-7
0.226, 7.697e-8
0.225, 1.940e-7
0.224, 1.052e-7
0.223, 1.318e-7
0.222, 1.789e-7
0.221, 7.225e-8
0.220, 1.896e-7
0.219, 1.023e-7
0.218, 1.287e-7
0.217, 1.777e-7
0.216, 7.081e-8
0.215, 1.881e-7
0.214, 1.017e-7
0.213, 1.268e-7
0.212, 1.766e-7
0.211, 6.894e-8
0.210, 1.859e-7
0.209, 9.989e-8
0.208, 1.237e-7
0.207, 1.741e-7
0.206, 6.574e-8
0.205, 1.820e-7
0.204, 9.615e-8
0.203, 1.186e-7
0.202, 1.701e-7
0.201, 6.153e-8
0.200, 1.777e-7
0.199, 9.336e-8
0.198, 1.155e-7
0.197, 1.687e-7
0.196, 6.054e-8
0.195, 1.767e-7
0.194, 9.322e-8
0.193, 1.141e-7
0.192, 1.681e-7
0.191, 5.884e-8
0.190, 1.747e-7
0.189, 9.143e-8
0.188, 1.109e-7
0.187, 1.655e-7
0.186, 5.583e-8
0.185, 1.711e-7
0.184, 8.834e-8
0.183, 1.063e-7
0.182, 1.624e-7
0.181, 5.225e-8
0.180, 1.677e-7
0.179, 8.614e-8
0.178, 1.037e-7
0.177, 1.616e-7
0.176, 5.138e-8
0.175, 1.669e-7
0.174, 8.639e-8
0.173, 1.024e-7
0.172, 1.609e-7
0.171, 4.999e-8
0.170, 1.647e-7
0.169, 8.445e-8
0.168, 9.881e-8
0.167, 1.585e-7
0.166, 4.682e-8
0.165, 1.614e-7
0.164, 8.181e-8
0.163, 9.508e-8
0.162, 1.559e-7
0.161, 4.438e-8
0.160, 1.588e-7
0.159, 8.058e-8
0.158, 9.289e-8
0.157, 1.552e-7
0.156, 4.375e-8
0.155, 1.579e-7
0.154, 8.035e-8
0.153, 9.171e-8
0.152, 1.545e-7
0.151, 4.221e-8
0.150, 1.559e-7
0.149, 7.879e-8
0.148, 8.831e-8
0.147, 1.520e-7
0.146, 3.951e-8
0.145, 1.528e-7
0.144, 7.671e-8
0.143, 8.517e-8
0.142, 1.502e-7
0.141, 3.754e-8
0.140, 1.509e-7
0.139, 7.569e-8
0.138, 8.343e-8
0.137, 1.496e-7
0.136, 3.688e-8
0.135, 1.497e-7
0.134, 7.558e-8
0.133, 8.161e-8
0.132, 1.489e-7
0.131, 3.547e-8
0.130, 1.478e-7
0.129, 7.398e-8
0.128, 7.873e-8
0.127, 1.469e-7
0.126, 3.313e-8
0.125, 1.450e-7
0.124, 7.222e-8
0.123, 7.595e-8
0.122, 1.454e-7
0.121, 3.161e-8
0.120, 1.434e-7
0.119, 7.187e-8
0.118, 7.432e-8
0.117, 1.451e-7
0.116, 3.093e-8
0.115, 1.423e-7
0.114, 7.152e-8
0.113, 7.268e-8
0.112, 1.442e-7
0.111, 2.954e-8
0.110, 1.405e-7
0.109, 7.023e-8
0.108, 6.968e-8
0.107, 1.425e-7
0.106, 2.761e-8
0.105, 1.380e-7
0.104, 6.869e-8
0.103, 6.728e-8
0.102, 1.415e-7
0.101, 2.646e-8
0.100, 1.368e-7
0.099, 6.874e-8
0.098, 6.617e-8
0.097, 1.411e-7
0.096, 2.590e-8
0.095, 1.358e-7
0.094, 6.835e-8
0.093, 6.419e-8
0.092, 1.402e-7
0.091, 2.467e-8
0.090, 1.339e-7
0.089, 6.709e-8
0.088, 6.179e-8
0.087, 1.389e-7
0.086, 2.291e-8
0.085, 1.319e-7
0.084, 6.617e-8
0.083, 5.969e-8
0.082, 1.379e-7
0.081, 2.227e-8
0.080, 1.309e-7
0.079, 6.603e-8
0.078, 5.833e-8
0.077, 1.377e-7
0.076, 2.182e-8
0.075, 1.296e-7
0.074, 6.556e-8
0.073, 5.655e-8
0.072, 1.366e-7
0.071, 2.028e-8
0.070, 1.278e-7
0.069, 6.461e-8
0.068, 5.425e-8
0.067, 1.355e-7
0.066, 1.914e-8
0.065, 1.263e-7
0.064, 6.421e-8
0.063, 5.278e-8
0.062, 1.349e-7
0.061, 1.851e-8
0.060, 1.255e-7
0.059, 6.420e-8
0.058, 5.137e-8
0.057, 1.347e-7
0.056, 1.795e-8
0.055, 1.240e-7
0.054, 6.375e-8
0.053, 4.961e-8
0.052, 1.336e-7
0.051, 1.688e-8
0.050, 1.223e-7
0.049, 6.309e-8
0.048, 4.752e-8
0.047, 1.328e-7
0.046, 1.597e-8
0.045, 1.210e-7
0.044, 6.289e-8
0.043, 4.619e-8
0.042, 1.324e-7
0.041, 1.546e-8
0.040, 1.202e-7
0.039, 6.274e-8
0.038, 4.473e-8
0.037, 1.322e-7
0.036, 1.503e-8
0.035, 1.190e-7
0.034, 6.233e-8
0.033, 4.316e-8
0.032, 1.314e-7
0.031, 1.392e-8
0.030, 1.175e-7
0.029, 6.181e-8
0.028, 4.127e-8
0.027, 1.306e-7
0.026, 1.325e-8
0.025, 1.164e-7
0.024, 6.189e-8
0.023, 4.010e-8
0.022, 1.304e-7
0.021, 1.296e-8
0.020, 1.157e-7
0.019, 6.178e-8
0.018, 3.881e-8
0.017, 1.301e-7
0.016, 1.241e-8
0.015, 1.142e-7
0.014, 6.143e-8
0.013, 3.735e-8
0.012, 1.293e-7
0.011, 1.179e-8
0.010, 1.129e-7
0.009, 6.123e-8
0.008, 3.573e-8
0.007, 1.288e-7
0.006, 1.136e-8
0.005, 1.119e-7
0.004, 6.110e-8
0.003, 3.482e-8
0.002, 1.286e-7
0.001, 1.101e-8
