Jan. 23, 2024   14:35:15
Cyclic Voltammetry
File: c:\users\lab\d3talesrobotics\roboticsui\robotics_api\workflows\actions\examples\cv.bin
Data Source:  Experiment
Instrument Model:  CHI650E
Header:  CV
Note: 

Init E (V) = 0
High E (V) = 1
Low E (V) = 0
Final E (V) = 0
Init P/N = P
Scan Rate (V/s) = 0.1
Segment = 2
Sample Interval (V) = 0.001
Quiet Time (sec) = 2
Sensitivity (A/V) = 1e-5
Comp R (ohm) = 10.0

Segment 1:
Ep = 0.719V
ip = 9.914e-5A
Ah = 6.957e-5C

Segment 2:
Ep = 0.632V
ip = -9.563e-5A
Ah = -6.632e-5C

Potential/V, Current/A

0.000, 5.400e-8
0.001, -3.859e-9
0.002, -1.049e-9
0.003, 6.394e-8
0.004, -3.755e-8
0.005, 5.912e-8
0.006, -1.845e-9
0.007, -3.733e-11
0.008, 6.506e-8
0.009, -3.632e-8
0.010, 5.972e-8
0.011, -3.910e-10
0.012, 4.834e-10
0.013, 6.641e-8
0.014, -3.554e-8
0.015, 6.050e-8
0.016, 4.638e-10
0.017, 6.603e-10
0.018, 6.729e-8
0.019, -3.455e-8
0.020, 6.094e-8
0.021, 1.692e-9
0.022, 9.157e-10
0.023, 6.792e-8
0.024, -3.395e-8
0.025, 6.146e-8
0.026, 2.724e-9
0.027, 1.395e-10
0.028, 6.948e-8
0.029, -3.315e-8
0.030, 6.165e-8
0.031, 3.539e-9
0.032, 1.368e-9
0.033, 6.931e-8
0.034, -3.263e-8
0.035, 6.204e-8
0.036, 4.217e-9
0.037, 1.653e-9
0.038, 7.004e-8
0.039, -3.190e-8
0.040, 6.244e-8
0.041, 5.131e-9
0.042, 1.780e-9
0.043, 7.082e-8
0.044, -3.162e-8
0.045, 6.274e-8
0.046, 5.887e-9
0.047, 2.026e-9
0.048, 7.120e-8
0.049, -3.101e-8
0.050, 6.316e-8
0.051, 6.919e-9
0.052, 1.820e-9
0.053, 7.198e-8
0.054, -3.052e-8
0.055, 6.353e-8
0.056, 7.341e-9
0.057, 1.810e-9
0.058, 7.282e-8
0.059, -2.998e-8
0.060, 6.381e-8
0.061, 8.059e-9
0.062, 1.495e-9
0.063, 7.386e-8
0.064, -2.938e-8
0.065, 6.388e-8
0.066, 8.894e-9
0.067, 2.144e-9
0.068, 7.368e-8
0.069, -2.881e-8
0.070, 6.421e-8
0.071, 9.827e-9
0.072, 1.938e-9
0.073, 7.432e-8
0.074, -2.826e-8
0.075, 6.439e-8
0.076, 1.029e-8
0.077, 2.390e-9
0.078, 7.500e-8
0.079, -2.797e-8
0.080, 6.480e-8
0.081, 1.115e-8
0.082, 2.370e-9
0.083, 7.556e-8
0.084, -2.722e-8
0.085, 6.513e-8
0.086, 1.181e-8
0.087, 2.625e-9
0.088, 7.619e-8
0.089, -2.648e-8
0.090, 6.559e-8
0.091, 1.261e-8
0.092, 2.557e-9
0.093, 7.688e-8
0.094, -2.597e-8
0.095, 6.587e-8
0.096, 1.348e-8
0.097, 2.399e-9
0.098, 7.808e-8
0.099, -2.530e-8
0.100, 6.602e-8
0.101, 1.456e-8
0.102, 3.274e-9
0.103, 7.843e-8
0.104, -2.464e-8
0.105, 6.629e-8
0.106, 1.553e-8
0.107, 3.205e-9
0.108, 7.906e-8
0.109, -2.380e-8
0.110, 6.695e-8
0.111, 1.645e-8
0.112, 3.362e-9
0.113, 7.973e-8
0.114, -2.296e-8
0.115, 6.742e-8
0.116, 1.714e-8
0.117, 3.932e-9
0.118, 8.061e-8
0.119, -2.218e-8
0.120, 6.781e-8
0.121, 1.832e-8
0.122, 4.079e-9
0.123, 8.157e-8
0.124, -2.137e-8
0.125, 6.850e-8
0.126, 1.924e-8
0.127, 4.571e-9
0.128, 8.250e-8
0.129, -2.058e-8
0.130, 6.882e-8
0.131, 2.080e-8
0.132, 4.856e-9
0.133, 8.332e-8
0.134, -1.954e-8
0.135, 6.977e-8
0.136, 2.155e-8
0.137, 5.376e-9
0.138, 8.451e-8
0.139, -1.840e-8
0.140, 7.028e-8
0.141, 2.309e-8
0.142, 5.946e-9
0.143, 8.530e-8
0.144, -1.734e-8
0.145, 7.109e-8
0.146, 2.443e-8
0.147, 6.064e-9
0.148, 8.685e-8
0.149, -1.597e-8
0.150, 7.187e-8
0.151, 2.581e-8
0.152, 7.528e-9
0.153, 8.755e-8
0.154, -1.485e-8
0.155, 7.291e-8
0.156, 2.718e-8
0.157, 8.353e-9
0.158, 8.880e-8
0.159, -1.355e-8
0.160, 7.371e-8
0.161, 2.888e-8
0.162, 9.198e-9
0.163, 9.008e-8
0.164, -1.253e-8
0.165, 7.474e-8
0.166, 3.084e-8
0.167, 1.010e-8
0.168, 9.153e-8
0.169, -1.093e-8
0.170, 7.624e-8
0.171, 3.203e-8
0.172, 1.121e-8
0.173, 9.319e-8
0.174, -9.411e-9
0.175, 7.747e-8
0.176, 3.384e-8
0.177, 1.202e-8
0.178, 9.456e-8
0.179, -7.819e-9
0.180, 7.863e-8
0.181, 3.565e-8
0.182, 1.278e-8
0.183, 9.676e-8
0.184, -6.286e-9
0.185, 8.002e-8
0.186, 3.763e-8
0.187, 1.454e-8
0.188, 9.803e-8
0.189, -4.223e-9
0.190, 8.144e-8
0.191, 3.965e-8
0.192, 1.594e-8
0.193, 9.966e-8
0.194, -2.287e-9
0.195, 8.294e-8
0.196, 4.163e-8
0.197, 1.759e-8
0.198, 1.016e-7
0.199, -4.893e-10
0.200, 8.469e-8
0.201, 4.400e-8
0.202, 1.924e-8
0.203, 1.036e-7
0.204, 1.810e-9
0.205, 8.670e-8
0.206, 4.609e-8
0.207, 2.104e-8
0.208, 1.056e-7
0.209, 3.627e-9
0.210, 8.850e-8
0.211, 4.847e-8
0.212, 2.249e-8
0.213, 1.079e-7
0.214, 5.927e-9
0.215, 9.011e-8
0.216, 5.090e-8
0.217, 2.418e-8
0.218, 1.103e-7
0.219, 8.147e-9
0.220, 9.199e-8
0.221, 5.363e-8
0.222, 2.625e-8
0.223, 1.124e-7
0.224, 1.068e-8
0.225, 9.390e-8
0.226, 5.633e-8
0.227, 2.850e-8
0.228, 1.144e-7
0.229, 1.302e-8
0.230, 9.614e-8
0.231, 5.889e-8
0.232, 3.038e-8
0.233, 1.168e-7
0.234, 1.587e-8
0.235, 9.801e-8
0.236, 6.164e-8
0.237, 3.271e-8
0.238, 1.193e-7
0.239, 1.854e-8
0.240, 1.005e-7
0.241, 6.427e-8
0.242, 3.526e-8
0.243, 1.221e-7
0.244, 2.097e-8
0.245, 1.030e-7
0.246, 6.736e-8
0.247, 3.766e-8
0.248, 1.245e-7
0.249, 2.401e-8
0.250, 1.055e-7
0.251, 7.024e-8
0.252, 3.984e-8
0.253, 1.278e-7
0.254, 2.678e-8
0.255, 1.082e-7
0.256, 7.391e-8
0.257, 4.255e-8
0.258, 1.305e-7
0.259, 3.002e-8
0.260, 1.108e-7
0.261, 7.685e-8
0.262, 4.516e-8
0.263, 1.336e-7
0.264, 3.300e-8
0.265, 1.134e-7
0.266, 8.042e-8
0.267, 4.786e-8
0.268, 1.366e-7
0.269, 3.671e-8
0.270, 1.164e-7
0.271, 8.378e-8
0.272, 5.079e-8
0.273, 1.397e-7
0.274, 3.999e-8
0.275, 1.195e-7
0.276, 8.736e-8
0.277, 5.393e-8
0.278, 1.431e-7
0.279, 4.336e-8
0.280, 1.225e-7
0.281, 9.116e-8
0.282, 5.717e-8
0.283, 1.465e-7
0.284, 4.694e-8
0.285, 1.258e-7
0.286, 9.496e-8
0.287, 6.036e-8
0.288, 1.502e-7
0.289, 5.082e-8
0.290, 1.292e-7
0.291, 9.890e-8
0.292, 6.374e-8
0.293, 1.539e-7
0.294, 5.461e-8
0.295, 1.329e-7
0.296, 1.028e-7
0.297, 6.718e-8
0.298, 1.578e-7
0.299, 5.871e-8
0.300, 1.365e-7
0.301, 1.074e-7
0.302, 7.087e-8
0.303, 1.620e-7
0.304, 6.285e-8
0.305, 1.404e-7
0.306, 1.119e-7
0.307, 7.547e-8
0.308, 1.660e-7
0.309, 6.764e-8
0.310, 1.446e-7
0.311, 1.166e-7
0.312, 7.948e-8
0.313, 1.706e-7
0.314, 7.234e-8
0.315, 1.486e-7
0.316, 1.216e-7
0.317, 8.399e-8
0.318, 1.753e-7
0.319, 7.726e-8
0.320, 1.535e-7
0.321, 1.270e-7
0.322, 8.887e-8
0.323, 1.803e-7
0.324, 8.256e-8
0.325, 1.587e-7
0.326, 1.326e-7
0.327, 9.401e-8
0.328, 1.857e-7
0.329, 8.841e-8
0.330, 1.641e-7
0.331, 1.386e-7
0.332, 9.941e-8
0.333, 1.917e-7
0.334, 9.454e-8
0.335, 1.697e-7
0.336, 1.452e-7
0.337, 1.054e-7
0.338, 1.983e-7
0.339, 1.013e-7
0.340, 1.762e-7
0.341, 1.523e-7
0.342, 1.123e-7
0.343, 2.051e-7
0.344, 1.086e-7
0.345, 1.832e-7
0.346, 1.603e-7
0.347, 1.197e-7
0.348, 2.128e-7
0.349, 1.168e-7
0.350, 1.910e-7
0.351, 1.688e-7
0.352, 1.280e-7
0.353, 2.212e-7
0.354, 1.257e-7
0.355, 1.994e-7
0.356, 1.788e-7
0.357, 1.374e-7
0.358, 2.311e-7
0.359, 1.362e-7
0.360, 2.094e-7
0.361, 1.893e-7
0.362, 1.478e-7
0.363, 2.417e-7
0.364, 1.473e-7
0.365, 2.205e-7
0.366, 2.012e-7
0.367, 1.595e-7
0.368, 2.538e-7
0.369, 1.602e-7
0.370, 2.328e-7
0.371, 2.146e-7
0.372, 1.724e-7
0.373, 2.676e-7
0.374, 1.743e-7
0.375, 2.467e-7
0.376, 2.297e-7
0.377, 1.872e-7
0.378, 2.829e-7
0.379, 1.901e-7
0.380, 2.622e-7
0.381, 2.466e-7
0.382, 2.037e-7
0.383, 2.995e-7
0.384, 2.079e-7
0.385, 2.793e-7
0.386, 2.653e-7
0.387, 2.217e-7
0.388, 3.179e-7
0.389, 2.274e-7
0.390, 2.982e-7
0.391, 2.851e-7
0.392, 2.415e-7
0.393, 3.380e-7
0.394, 2.481e-7
0.395, 3.184e-7
0.396, 3.066e-7
0.397, 2.628e-7
0.398, 3.587e-7
0.399, 2.703e-7
0.400, 3.396e-7
0.401, 3.287e-7
0.402, 2.844e-7
0.403, 3.808e-7
0.404, 2.926e-7
0.405, 3.608e-7
0.406, 3.521e-7
0.407, 3.064e-7
0.408, 4.026e-7
0.409, 3.156e-7
0.410, 3.831e-7
0.411, 3.743e-7
0.412, 3.279e-7
0.413, 4.244e-7
0.414, 3.372e-7
0.415, 4.034e-7
0.416, 3.960e-7
0.417, 3.482e-7
0.418, 4.448e-7
0.419, 3.581e-7
0.420, 4.224e-7
0.421, 4.163e-7
0.422, 3.675e-7
0.423, 4.636e-7
0.424, 3.772e-7
0.425, 4.401e-7
0.426, 4.353e-7
0.427, 3.847e-7
0.428, 4.807e-7
0.429, 3.951e-7
0.430, 4.564e-7
0.431, 4.523e-7
0.432, 4.008e-7
0.433, 4.962e-7
0.434, 4.111e-7
0.435, 4.711e-7
0.436, 4.674e-7
0.437, 4.156e-7
0.438, 5.104e-7
0.439, 4.258e-7
0.440, 4.839e-7
0.441, 4.820e-7
0.442, 4.293e-7
0.443, 5.231e-7
0.444, 4.391e-7
0.445, 4.968e-7
0.446, 4.947e-7
0.447, 4.414e-7
0.448, 5.352e-7
0.449, 4.514e-7
0.450, 5.084e-7
0.451, 5.069e-7
0.452, 4.528e-7
0.453, 5.467e-7
0.454, 4.638e-7
0.455, 5.194e-7
0.456, 5.189e-7
0.457, 4.647e-7
0.458, 5.581e-7
0.459, 4.754e-7
0.460, 5.305e-7
0.461, 5.315e-7
0.462, 4.759e-7
0.463, 5.696e-7
0.464, 4.880e-7
0.465, 5.417e-7
0.466, 5.444e-7
0.467, 4.883e-7
0.468, 5.818e-7
0.469, 5.015e-7
0.470, 5.542e-7
0.471, 5.585e-7
0.472, 5.019e-7
0.473, 5.954e-7
0.474, 5.173e-7
0.475, 5.683e-7
0.476, 5.743e-7
0.477, 5.177e-7
0.478, 6.114e-7
0.479, 5.346e-7
0.480, 5.854e-7
0.481, 5.934e-7
0.482, 5.369e-7
0.483, 6.310e-7
0.484, 5.562e-7
0.485, 6.060e-7
0.486, 6.171e-7
0.487, 5.608e-7
0.488, 6.548e-7
0.489, 5.825e-7
0.490, 6.315e-7
0.491, 6.461e-7
0.492, 5.895e-7
0.493, 6.846e-7
0.494, 6.152e-7
0.495, 6.636e-7
0.496, 6.817e-7
0.497, 6.253e-7
0.498, 7.217e-7
0.499, 6.565e-7
0.500, 7.030e-7
0.501, 7.257e-7
0.502, 6.704e-7
0.503, 7.677e-7
0.504, 7.074e-7
0.505, 7.523e-7
0.506, 7.811e-7
0.507, 7.262e-7
0.508, 8.244e-7
0.509, 7.714e-7
0.510, 8.126e-7
0.511, 8.487e-7
0.512, 7.965e-7
0.513, 8.948e-7
0.514, 8.484e-7
0.515, 8.889e-7
0.516, 9.322e-7
0.517, 8.798e-7
0.518, 9.807e-7
0.519, 9.432e-7
0.520, 9.804e-7
0.521, 1.034e-6
0.522, 9.838e-7
0.523, 1.087e-6
0.524, 1.059e-6
0.525, 1.094e-6
0.526, 1.159e-6
0.527, 1.110e-6
0.528, 1.216e-6
0.529, 1.200e-6
0.530, 1.232e-6
0.531, 1.310e-6
0.532, 1.264e-6
0.533, 1.372e-6
0.534, 1.371e-6
0.535, 1.400e-6
0.536, 1.493e-6
0.537, 1.451e-6
0.538, 1.564e-6
0.539, 1.579e-6
0.540, 1.602e-6
0.541, 1.714e-6
0.542, 1.679e-6
0.543, 1.791e-6
0.544, 1.828e-6
0.545, 1.846e-6
0.546, 1.980e-6
0.547, 1.947e-6
0.548, 2.069e-6
0.549, 2.128e-6
0.550, 2.139e-6
0.551, 2.303e-6
0.552, 2.272e-6
0.553, 2.401e-6
0.554, 2.491e-6
0.555, 2.493e-6
0.556, 2.689e-6
0.557, 2.666e-6
0.558, 2.801e-6
0.559, 2.926e-6
0.560, 2.920e-6
0.561, 3.150e-6
0.562, 3.135e-6
0.563, 3.283e-6
0.564, 3.446e-6
0.565, 3.428e-6
0.566, 3.702e-6
0.567, 3.698e-6
0.568, 3.852e-6
0.569, 4.061e-6
0.570, 4.038e-6
0.571, 4.360e-6
0.572, 4.366e-6
0.573, 4.537e-6
0.574, 4.796e-6
0.575, 4.763e-6
0.576, 5.146e-6
0.577, 5.164e-6
0.578, 5.347e-6
0.579, 5.667e-6
0.580, 5.621e-6
0.581, 6.069e-6
0.582, 6.103e-6
0.583, 6.316e-6
0.584, 6.698e-6
0.585, 6.640e-6
0.586, 7.169e-6
0.587, 7.215e-6
0.588, 7.455e-6
0.589, 7.921e-6
0.590, 7.844e-6
0.591, 8.461e-6
0.592, 8.526e-6
0.593, 8.796e-6
0.594, 9.357e-6
0.595, 9.252e-6
0.596, 9.976e-6
0.597, 1.006e-5
0.598, 1.037e-5
0.599, 1.102e-5
0.600, 1.091e-5
0.601, 1.174e-5
0.602, 1.185e-5
0.603, 1.219e-5
0.604, 1.295e-5
0.605, 1.283e-5
0.606, 1.378e-5
0.607, 1.392e-5
0.608, 1.432e-5
0.609, 1.519e-5
0.610, 1.507e-5
0.611, 1.614e-5
0.612, 1.630e-5
0.613, 1.674e-5
0.614, 1.775e-5
0.615, 1.763e-5
0.616, 1.884e-5
0.617, 1.903e-5
0.618, 1.954e-5
0.619, 2.065e-5
0.620, 2.051e-5
0.621, 2.188e-5
0.622, 2.209e-5
0.623, 2.268e-5
0.624, 2.390e-5
0.625, 2.377e-5
0.626, 2.529e-5
0.627, 2.557e-5
0.628, 2.620e-5
0.629, 2.752e-5
0.630, 2.739e-5
0.631, 2.907e-5
0.632, 2.933e-5
0.633, 3.008e-5
0.634, 3.155e-5
0.635, 3.140e-5
0.636, 3.323e-5
0.637, 3.353e-5
0.638, 3.433e-5
0.639, 3.592e-5
0.640, 3.579e-5
0.641, 3.774e-5
0.642, 3.807e-5
0.643, 3.894e-5
0.644, 4.067e-5
0.645, 4.051e-5
0.646, 4.259e-5
0.647, 4.295e-5
0.648, 4.386e-5
0.649, 4.567e-5
0.650, 4.553e-5
0.651, 4.771e-5
0.652, 4.811e-5
0.653, 4.907e-5
0.654, 5.094e-5
0.655, 5.081e-5
0.656, 5.307e-5
0.657, 5.346e-5
0.658, 5.446e-5
0.659, 5.638e-5
0.660, 5.622e-5
0.661, 5.855e-5
0.662, 5.899e-5
0.663, 5.994e-5
0.664, 6.188e-5
0.665, 6.171e-5
0.666, 6.411e-5
0.667, 6.445e-5
0.668, 6.546e-5
0.669, 6.741e-5
0.670, 6.719e-5
0.671, 6.956e-5
0.672, 6.990e-5
0.673, 7.088e-5
0.674, 7.283e-5
0.675, 7.255e-5
0.676, 7.493e-5
0.677, 7.519e-5
0.678, 7.614e-5
0.679, 7.808e-5
0.680, 7.775e-5
0.681, 8.006e-5
0.682, 8.025e-5
0.683, 8.112e-5
0.684, 8.299e-5
0.685, 8.259e-5
0.686, 8.482e-5
0.687, 8.496e-5
0.688, 8.573e-5
0.689, 8.751e-5
0.690, 8.700e-5
0.691, 8.914e-5
0.692, 8.921e-5
0.693, 8.984e-5
0.694, 9.149e-5
0.695, 9.090e-5
0.696, 9.286e-5
0.697, 9.290e-5
0.698, 9.335e-5
0.699, 9.485e-5
0.700, 9.415e-5
0.701, 9.597e-5
0.702, 9.582e-5
0.703, 9.621e-5
0.704, 9.755e-5
0.705, 9.675e-5
0.706, 9.836e-5
0.707, 9.811e-5
0.708, 9.835e-5
0.709, 9.950e-5
0.710, 9.860e-5
0.711, 9.996e-5
0.712, 9.949e-5
0.713, 9.963e-5
0.714, 1.003e-4
0.715, 9.972e-5
0.716, 1.003e-4
0.717, 1.001e-4
0.718, 1.001e-4
0.719, 1.004e-4
0.720, 1.001e-4
0.721, 1.004e-4
0.722, 1.002e-4
0.723, 1.001e-4
0.724, 1.004e-4
0.725, 9.990e-5
0.726, 1.003e-4
0.727, 9.991e-5
0.728, 9.967e-5
0.729, 1.001e-4
0.730, 9.910e-5
0.731, 9.973e-5
0.732, 9.906e-5
0.733, 9.859e-5
0.734, 9.895e-5
0.735, 9.779e-5
0.736, 9.825e-5
0.737, 9.754e-5
0.738, 9.703e-5
0.739, 9.726e-5
0.740, 9.610e-5
0.741, 9.639e-5
0.742, 9.568e-5
0.743, 9.513e-5
0.744, 9.523e-5
0.745, 9.410e-5
0.746, 9.429e-5
0.747, 9.355e-5
0.748, 9.297e-5
0.749, 9.301e-5
0.750, 9.190e-5
0.751, 9.200e-5
0.752, 9.128e-5
0.753, 9.069e-5
0.754, 9.064e-5
0.755, 8.963e-5
0.756, 8.964e-5
0.757, 8.894e-5
0.758, 8.836e-5
0.759, 8.825e-5
0.760, 8.730e-5
0.761, 8.724e-5
0.762, 8.658e-5
0.763, 8.601e-5
0.764, 8.586e-5
0.765, 8.500e-5
0.766, 8.487e-5
0.767, 8.424e-5
0.768, 8.370e-5
0.769, 8.351e-5
0.770, 8.271e-5
0.771, 8.256e-5
0.772, 8.197e-5
0.773, 8.146e-5
0.774, 8.125e-5
0.775, 8.052e-5
0.776, 8.034e-5
0.777, 7.979e-5
0.778, 7.931e-5
0.779, 7.907e-5
0.780, 7.841e-5
0.781, 7.822e-5
0.782, 7.769e-5
0.783, 7.725e-5
0.784, 7.700e-5
0.785, 7.639e-5
0.786, 7.619e-5
0.787, 7.570e-5
0.788, 7.529e-5
0.789, 7.504e-5
0.790, 7.449e-5
0.791, 7.429e-5
0.792, 7.383e-5
0.793, 7.346e-5
0.794, 7.321e-5
0.795, 7.270e-5
0.796, 7.251e-5
0.797, 7.206e-5
0.798, 7.172e-5
0.799, 7.147e-5
0.800, 7.100e-5
0.801, 7.080e-5
0.802, 7.039e-5
0.803, 7.007e-5
0.804, 6.982e-5
0.805, 6.940e-5
0.806, 6.920e-5
0.807, 6.882e-5
0.808, 6.853e-5
0.809, 6.828e-5
0.810, 6.790e-5
0.811, 6.772e-5
0.812, 6.736e-5
0.813, 6.710e-5
0.814, 6.685e-5
0.815, 6.650e-5
0.816, 6.632e-5
0.817, 6.597e-5
0.818, 6.573e-5
0.819, 6.549e-5
0.820, 6.517e-5
0.821, 6.499e-5
0.822, 6.466e-5
0.823, 6.444e-5
0.824, 6.420e-5
0.825, 6.391e-5
0.826, 6.375e-5
0.827, 6.343e-5
0.828, 6.323e-5
0.829, 6.301e-5
0.830, 6.274e-5
0.831, 6.259e-5
0.832, 6.228e-5
0.833, 6.210e-5
0.834, 6.188e-5
0.835, 6.162e-5
0.836, 6.148e-5
0.837, 6.119e-5
0.838, 6.102e-5
0.839, 6.081e-5
0.840, 6.057e-5
0.841, 6.043e-5
0.842, 6.015e-5
0.843, 6.000e-5
0.844, 5.979e-5
0.845, 5.957e-5
0.846, 5.944e-5
0.847, 5.918e-5
0.848, 5.904e-5
0.849, 5.884e-5
0.850, 5.864e-5
0.851, 5.852e-5
0.852, 5.827e-5
0.853, 5.814e-5
0.854, 5.795e-5
0.855, 5.775e-5
0.856, 5.764e-5
0.857, 5.739e-5
0.858, 5.728e-5
0.859, 5.708e-5
0.860, 5.690e-5
0.861, 5.679e-5
0.862, 5.655e-5
0.863, 5.644e-5
0.864, 5.626e-5
0.865, 5.609e-5
0.866, 5.599e-5
0.867, 5.576e-5
0.868, 5.567e-5
0.869, 5.549e-5
0.870, 5.534e-5
0.871, 5.525e-5
0.872, 5.503e-5
0.873, 5.494e-5
0.874, 5.477e-5
0.875, 5.461e-5
0.876, 5.452e-5
0.877, 5.430e-5
0.878, 5.422e-5
0.879, 5.405e-5
0.880, 5.390e-5
0.881, 5.381e-5
0.882, 5.360e-5
0.883, 5.353e-5
0.884, 5.337e-5
0.885, 5.323e-5
0.886, 5.316e-5
0.887, 5.295e-5
0.888, 5.289e-5
0.889, 5.274e-5
0.890, 5.261e-5
0.891, 5.254e-5
0.892, 5.235e-5
0.893, 5.229e-5
0.894, 5.213e-5
0.895, 5.200e-5
0.896, 5.193e-5
0.897, 5.173e-5
0.898, 5.168e-5
0.899, 5.152e-5
0.900, 5.140e-5
0.901, 5.133e-5
0.902, 5.114e-5
0.903, 5.110e-5
0.904, 5.095e-5
0.905, 5.083e-5
0.906, 5.078e-5
0.907, 5.060e-5
0.908, 5.057e-5
0.909, 5.043e-5
0.910, 5.032e-5
0.911, 5.027e-5
0.912, 5.009e-5
0.913, 5.005e-5
0.914, 4.990e-5
0.915, 4.980e-5
0.916, 4.974e-5
0.917, 4.955e-5
0.918, 4.952e-5
0.919, 4.937e-5
0.920, 4.927e-5
0.921, 4.922e-5
0.922, 4.904e-5
0.923, 4.902e-5
0.924, 4.888e-5
0.925, 4.879e-5
0.926, 4.875e-5
0.927, 4.858e-5
0.928, 4.857e-5
0.929, 4.844e-5
0.930, 4.835e-5
0.931, 4.831e-5
0.932, 4.813e-5
0.933, 4.811e-5
0.934, 4.797e-5
0.935, 4.788e-5
0.936, 4.783e-5
0.937, 4.766e-5
0.938, 4.764e-5
0.939, 4.751e-5
0.940, 4.742e-5
0.941, 4.738e-5
0.942, 4.722e-5
0.943, 4.721e-5
0.944, 4.708e-5
0.945, 4.701e-5
0.946, 4.698e-5
0.947, 4.682e-5
0.948, 4.681e-5
0.949, 4.669e-5
0.950, 4.661e-5
0.951, 4.658e-5
0.952, 4.641e-5
0.953, 4.641e-5
0.954, 4.628e-5
0.955, 4.620e-5
0.956, 4.616e-5
0.957, 4.600e-5
0.958, 4.600e-5
0.959, 4.587e-5
0.960, 4.580e-5
0.961, 4.577e-5
0.962, 4.562e-5
0.963, 4.562e-5
0.964, 4.550e-5
0.965, 4.543e-5
0.966, 4.541e-5
0.967, 4.526e-5
0.968, 4.527e-5
0.969, 4.515e-5
0.970, 4.509e-5
0.971, 4.506e-5
0.972, 4.491e-5
0.973, 4.491e-5
0.974, 4.478e-5
0.975, 4.472e-5
0.976, 4.469e-5
0.977, 4.454e-5
0.978, 4.455e-5
0.979, 4.442e-5
0.980, 4.436e-5
0.981, 4.435e-5
0.982, 4.420e-5
0.983, 4.422e-5
0.984, 4.411e-5
0.985, 4.405e-5
0.986, 4.404e-5
0.987, 4.390e-5
0.988, 4.391e-5
0.989, 4.380e-5
0.990, 4.373e-5
0.991, 4.371e-5
0.992, 4.356e-5
0.993, 4.357e-5
0.994, 4.345e-5
0.995, 4.339e-5
0.996, 4.338e-5
0.997, 4.323e-5
0.998, 4.326e-5
0.999, 4.315e-5
1.000, 4.305e-5
0.999, 4.299e-5
0.998, 4.283e-5
0.997, 4.284e-5
0.996, 4.271e-5
0.995, 4.265e-5
0.994, 4.263e-5
0.993, 4.246e-5
0.992, 4.246e-5
0.991, 4.233e-5
0.990, 4.226e-5
0.989, 4.223e-5
0.988, 4.207e-5
0.987, 4.208e-5
0.986, 4.196e-5
0.985, 4.191e-5
0.984, 4.190e-5
0.983, 4.176e-5
0.982, 4.179e-5
0.981, 4.169e-5
0.980, 4.164e-5
0.979, 4.164e-5
0.978, 4.150e-5
0.977, 4.152e-5
0.976, 4.141e-5
0.975, 4.134e-5
0.974, 4.132e-5
0.973, 4.117e-5
0.972, 4.118e-5
0.971, 4.106e-5
0.970, 4.100e-5
0.969, 4.099e-5
0.968, 4.084e-5
0.967, 4.087e-5
0.966, 4.077e-5
0.965, 4.072e-5
0.964, 4.073e-5
0.963, 4.060e-5
0.962, 4.064e-5
0.961, 4.054e-5
0.960, 4.050e-5
0.959, 4.050e-5
0.958, 4.036e-5
0.957, 4.038e-5
0.956, 4.028e-5
0.955, 4.022e-5
0.954, 4.021e-5
0.953, 4.006e-5
0.952, 4.007e-5
0.951, 3.996e-5
0.950, 3.990e-5
0.949, 3.990e-5
0.948, 3.977e-5
0.947, 3.979e-5
0.946, 3.970e-5
0.945, 3.966e-5
0.944, 3.967e-5
0.943, 3.954e-5
0.942, 3.958e-5
0.941, 3.949e-5
0.940, 3.945e-5
0.939, 3.947e-5
0.938, 3.934e-5
0.937, 3.937e-5
0.936, 3.927e-5
0.935, 3.920e-5
0.934, 3.919e-5
0.933, 3.905e-5
0.932, 3.906e-5
0.931, 3.896e-5
0.930, 3.890e-5
0.929, 3.890e-5
0.928, 3.876e-5
0.927, 3.879e-5
0.926, 3.871e-5
0.925, 3.867e-5
0.924, 3.869e-5
0.923, 3.858e-5
0.922, 3.862e-5
0.921, 3.855e-5
0.920, 3.851e-5
0.919, 3.853e-5
0.918, 3.840e-5
0.917, 3.843e-5
0.916, 3.833e-5
0.915, 3.826e-5
0.914, 3.825e-5
0.913, 3.810e-5
0.912, 3.811e-5
0.911, 3.801e-5
0.910, 3.796e-5
0.909, 3.797e-5
0.908, 3.785e-5
0.907, 3.789e-5
0.906, 3.782e-5
0.905, 3.778e-5
0.904, 3.781e-5
0.903, 3.770e-5
0.902, 3.775e-5
0.901, 3.768e-5
0.900, 3.764e-5
0.899, 3.767e-5
0.898, 3.754e-5
0.897, 3.755e-5
0.896, 3.745e-5
0.895, 3.738e-5
0.894, 3.738e-5
0.893, 3.723e-5
0.892, 3.725e-5
0.891, 3.717e-5
0.890, 3.712e-5
0.889, 3.714e-5
0.888, 3.702e-5
0.887, 3.706e-5
0.886, 3.699e-5
0.885, 3.696e-5
0.884, 3.700e-5
0.883, 3.689e-5
0.882, 3.693e-5
0.881, 3.687e-5
0.880, 3.682e-5
0.879, 3.685e-5
0.878, 3.671e-5
0.877, 3.673e-5
0.876, 3.664e-5
0.875, 3.656e-5
0.874, 3.657e-5
0.873, 3.643e-5
0.872, 3.645e-5
0.871, 3.637e-5
0.870, 3.632e-5
0.869, 3.635e-5
0.868, 3.623e-5
0.867, 3.627e-5
0.866, 3.621e-5
0.865, 3.617e-5
0.864, 3.621e-5
0.863, 3.610e-5
0.862, 3.615e-5
0.861, 3.609e-5
0.860, 3.603e-5
0.859, 3.606e-5
0.858, 3.592e-5
0.857, 3.592e-5
0.856, 3.584e-5
0.855, 3.575e-5
0.854, 3.576e-5
0.853, 3.563e-5
0.852, 3.564e-5
0.851, 3.557e-5
0.850, 3.550e-5
0.849, 3.553e-5
0.848, 3.542e-5
0.847, 3.545e-5
0.846, 3.540e-5
0.845, 3.535e-5
0.844, 3.540e-5
0.843, 3.529e-5
0.842, 3.532e-5
0.841, 3.527e-5
0.840, 3.518e-5
0.839, 3.520e-5
0.838, 3.506e-5
0.837, 3.504e-5
0.836, 3.496e-5
0.835, 3.486e-5
0.834, 3.487e-5
0.833, 3.473e-5
0.832, 3.472e-5
0.831, 3.467e-5
0.830, 3.458e-5
0.829, 3.461e-5
0.828, 3.449e-5
0.827, 3.450e-5
0.826, 3.447e-5
0.825, 3.439e-5
0.824, 3.443e-5
0.823, 3.432e-5
0.822, 3.431e-5
0.821, 3.427e-5
0.820, 3.414e-5
0.819, 3.414e-5
0.818, 3.400e-5
0.817, 3.394e-5
0.816, 3.387e-5
0.815, 3.372e-5
0.814, 3.373e-5
0.813, 3.358e-5
0.812, 3.352e-5
0.811, 3.349e-5
0.810, 3.334e-5
0.809, 3.337e-5
0.808, 3.325e-5
0.807, 3.319e-5
0.806, 3.319e-5
0.805, 3.304e-5
0.804, 3.307e-5
0.803, 3.295e-5
0.802, 3.285e-5
0.801, 3.283e-5
0.800, 3.263e-5
0.799, 3.262e-5
0.798, 3.245e-5
0.797, 3.230e-5
0.796, 3.227e-5
0.795, 3.202e-5
0.794, 3.201e-5
0.793, 3.184e-5
0.792, 3.168e-5
0.791, 3.168e-5
0.790, 3.142e-5
0.789, 3.142e-5
0.788, 3.127e-5
0.787, 3.110e-5
0.786, 3.113e-5
0.785, 3.085e-5
0.784, 3.085e-5
0.783, 3.068e-5
0.782, 3.045e-5
0.781, 3.046e-5
0.780, 3.010e-5
0.779, 3.006e-5
0.778, 2.985e-5
0.777, 2.954e-5
0.776, 2.954e-5
0.775, 2.911e-5
0.774, 2.906e-5
0.773, 2.885e-5
0.772, 2.848e-5
0.771, 2.852e-5
0.770, 2.805e-5
0.769, 2.801e-5
0.768, 2.780e-5
0.767, 2.740e-5
0.766, 2.747e-5
0.765, 2.694e-5
0.764, 2.689e-5
0.763, 2.665e-5
0.762, 2.615e-5
0.761, 2.621e-5
0.760, 2.556e-5
0.759, 2.545e-5
0.758, 2.515e-5
0.757, 2.455e-5
0.756, 2.461e-5
0.755, 2.383e-5
0.754, 2.371e-5
0.753, 2.338e-5
0.752, 2.270e-5
0.751, 2.279e-5
0.750, 2.195e-5
0.749, 2.183e-5
0.748, 2.148e-5
0.747, 2.073e-5
0.746, 2.084e-5
0.745, 1.989e-5
0.744, 1.976e-5
0.743, 1.935e-5
0.742, 1.846e-5
0.741, 1.856e-5
0.740, 1.745e-5
0.739, 1.725e-5
0.738, 1.676e-5
0.737, 1.571e-5
0.736, 1.581e-5
0.735, 1.454e-5
0.734, 1.433e-5
0.733, 1.378e-5
0.732, 1.264e-5
0.731, 1.278e-5
0.730, 1.140e-5
0.729, 1.117e-5
0.728, 1.059e-5
0.727, 9.351e-6
0.726, 9.499e-6
0.725, 7.981e-6
0.724, 7.724e-6
0.723, 7.070e-6
0.722, 5.693e-6
0.721, 5.819e-6
0.720, 4.098e-6
0.719, 3.777e-6
0.718, 3.032e-6
0.717, 1.475e-6
0.716, 1.567e-6
0.715, -2.529e-7
0.714, -6.036e-7
0.713, -1.424e-6
0.712, -3.021e-6
0.711, -2.897e-6
0.710, -4.861e-6
0.709, -5.197e-6
0.708, -6.054e-6
0.707, -7.740e-6
0.706, -7.606e-6
0.705, -9.651e-6
0.704, -1.003e-5
0.703, -1.094e-5
0.702, -1.276e-5
0.701, -1.265e-5
0.700, -1.487e-5
0.699, -1.524e-5
0.698, -1.625e-5
0.697, -1.814e-5
0.696, -1.801e-5
0.695, -2.031e-5
0.694, -2.070e-5
0.693, -2.171e-5
0.692, -2.364e-5
0.691, -2.349e-5
0.690, -2.582e-5
0.689, -2.618e-5
0.688, -2.719e-5
0.687, -2.912e-5
0.686, -2.889e-5
0.685, -3.131e-5
0.684, -3.167e-5
0.683, -3.266e-5
0.682, -3.464e-5
0.681, -3.444e-5
0.680, -3.681e-5
0.679, -3.717e-5
0.678, -3.817e-5
0.677, -4.012e-5
0.676, -3.988e-5
0.675, -4.224e-5
0.674, -4.252e-5
0.673, -4.346e-5
0.672, -4.534e-5
0.671, -4.500e-5
0.670, -4.725e-5
0.669, -4.749e-5
0.668, -4.835e-5
0.667, -5.011e-5
0.666, -4.972e-5
0.665, -5.194e-5
0.664, -5.204e-5
0.663, -5.283e-5
0.662, -5.456e-5
0.661, -5.407e-5
0.660, -5.618e-5
0.659, -5.623e-5
0.658, -5.691e-5
0.657, -5.853e-5
0.656, -5.794e-5
0.655, -5.990e-5
0.654, -5.984e-5
0.653, -6.034e-5
0.652, -6.189e-5
0.651, -6.117e-5
0.650, -6.298e-5
0.649, -6.282e-5
0.648, -6.319e-5
0.647, -6.452e-5
0.646, -6.372e-5
0.645, -6.531e-5
0.644, -6.505e-5
0.643, -6.528e-5
0.642, -6.646e-5
0.641, -6.557e-5
0.640, -6.700e-5
0.639, -6.666e-5
0.638, -6.675e-5
0.637, -6.774e-5
0.636, -6.677e-5
0.635, -6.802e-5
0.634, -6.757e-5
0.633, -6.753e-5
0.632, -6.835e-5
0.631, -6.732e-5
0.630, -6.833e-5
0.629, -6.777e-5
0.628, -6.758e-5
0.627, -6.822e-5
0.626, -6.711e-5
0.625, -6.791e-5
0.624, -6.728e-5
0.623, -6.698e-5
0.622, -6.747e-5
0.621, -6.636e-5
0.620, -6.698e-5
0.619, -6.636e-5
0.618, -6.598e-5
0.617, -6.635e-5
0.616, -6.522e-5
0.615, -6.571e-5
0.614, -6.506e-5
0.613, -6.458e-5
0.612, -6.481e-5
0.611, -6.368e-5
0.610, -6.399e-5
0.609, -6.326e-5
0.608, -6.273e-5
0.607, -6.283e-5
0.606, -6.173e-5
0.605, -6.190e-5
0.604, -6.118e-5
0.603, -6.060e-5
0.602, -6.066e-5
0.601, -5.964e-5
0.600, -5.973e-5
0.599, -5.906e-5
0.598, -5.852e-5
0.597, -5.847e-5
0.596, -5.753e-5
0.595, -5.754e-5
0.594, -5.687e-5
0.593, -5.633e-5
0.592, -5.621e-5
0.591, -5.532e-5
0.590, -5.524e-5
0.589, -5.459e-5
0.588, -5.406e-5
0.587, -5.387e-5
0.586, -5.303e-5
0.585, -5.289e-5
0.584, -5.229e-5
0.583, -5.178e-5
0.582, -5.158e-5
0.581, -5.083e-5
0.580, -5.069e-5
0.579, -5.012e-5
0.578, -4.967e-5
0.577, -4.946e-5
0.576, -4.879e-5
0.575, -4.863e-5
0.574, -4.809e-5
0.573, -4.767e-5
0.572, -4.743e-5
0.571, -4.680e-5
0.570, -4.661e-5
0.569, -4.608e-5
0.568, -4.566e-5
0.567, -4.539e-5
0.566, -4.480e-5
0.565, -4.458e-5
0.564, -4.408e-5
0.563, -4.372e-5
0.562, -4.345e-5
0.561, -4.295e-5
0.560, -4.276e-5
0.559, -4.232e-5
0.558, -4.200e-5
0.557, -4.175e-5
0.556, -4.131e-5
0.555, -4.112e-5
0.554, -4.070e-5
0.553, -4.041e-5
0.552, -4.014e-5
0.551, -3.972e-5
0.550, -3.952e-5
0.549, -3.910e-5
0.548, -3.881e-5
0.547, -3.851e-5
0.546, -3.812e-5
0.545, -3.791e-5
0.544, -3.751e-5
0.543, -3.727e-5
0.542, -3.699e-5
0.541, -3.666e-5
0.540, -3.649e-5
0.539, -3.613e-5
0.538, -3.593e-5
0.537, -3.567e-5
0.536, -3.538e-5
0.535, -3.521e-5
0.534, -3.489e-5
0.533, -3.470e-5
0.532, -3.444e-5
0.531, -3.416e-5
0.530, -3.398e-5
0.529, -3.365e-5
0.528, -3.345e-5
0.527, -3.318e-5
0.526, -3.291e-5
0.525, -3.273e-5
0.524, -3.241e-5
0.523, -3.225e-5
0.522, -3.199e-5
0.521, -3.176e-5
0.520, -3.161e-5
0.519, -3.132e-5
0.518, -3.119e-5
0.517, -3.097e-5
0.516, -3.077e-5
0.515, -3.064e-5
0.514, -3.038e-5
0.513, -3.027e-5
0.512, -3.004e-5
0.511, -2.984e-5
0.510, -2.970e-5
0.509, -2.942e-5
0.508, -2.929e-5
0.507, -2.904e-5
0.506, -2.885e-5
0.505, -2.870e-5
0.504, -2.842e-5
0.503, -2.832e-5
0.502, -2.809e-5
0.501, -2.792e-5
0.500, -2.781e-5
0.499, -2.757e-5
0.498, -2.750e-5
0.497, -2.730e-5
0.496, -2.717e-5
0.495, -2.707e-5
0.494, -2.684e-5
0.493, -2.678e-5
0.492, -2.657e-5
0.491, -2.643e-5
0.490, -2.631e-5
0.489, -2.606e-5
0.488, -2.598e-5
0.487, -2.576e-5
0.486, -2.562e-5
0.485, -2.550e-5
0.484, -2.527e-5
0.483, -2.521e-5
0.482, -2.501e-5
0.481, -2.489e-5
0.480, -2.480e-5
0.479, -2.460e-5
0.478, -2.457e-5
0.477, -2.439e-5
0.476, -2.429e-5
0.475, -2.421e-5
0.474, -2.401e-5
0.473, -2.397e-5
0.472, -2.379e-5
0.471, -2.367e-5
0.470, -2.359e-5
0.469, -2.337e-5
0.468, -2.333e-5
0.467, -2.313e-5
0.466, -2.302e-5
0.465, -2.294e-5
0.464, -2.273e-5
0.463, -2.270e-5
0.462, -2.252e-5
0.461, -2.243e-5
0.460, -2.236e-5
0.459, -2.218e-5
0.458, -2.216e-5
0.457, -2.200e-5
0.456, -2.193e-5
0.455, -2.187e-5
0.454, -2.169e-5
0.453, -2.168e-5
0.452, -2.151e-5
0.451, -2.142e-5
0.450, -2.136e-5
0.449, -2.116e-5
0.448, -2.114e-5
0.447, -2.097e-5
0.446, -2.088e-5
0.445, -2.081e-5
0.444, -2.062e-5
0.443, -2.061e-5
0.442, -2.045e-5
0.441, -2.037e-5
0.440, -2.032e-5
0.439, -2.015e-5
0.438, -2.016e-5
0.437, -2.001e-5
0.436, -1.995e-5
0.435, -1.991e-5
0.434, -1.974e-5
0.433, -1.975e-5
0.432, -1.960e-5
0.431, -1.953e-5
0.430, -1.948e-5
0.429, -1.929e-5
0.428, -1.929e-5
0.427, -1.913e-5
0.426, -1.905e-5
0.425, -1.900e-5
0.424, -1.882e-5
0.423, -1.882e-5
0.422, -1.867e-5
0.421, -1.861e-5
0.420, -1.858e-5
0.419, -1.842e-5
0.418, -1.844e-5
0.417, -1.831e-5
0.416, -1.826e-5
0.415, -1.823e-5
0.414, -1.807e-5
0.413, -1.809e-5
0.412, -1.795e-5
0.411, -1.789e-5
0.410, -1.785e-5
0.409, -1.767e-5
0.408, -1.768e-5
0.407, -1.753e-5
0.406, -1.747e-5
0.405, -1.743e-5
0.404, -1.726e-5
0.403, -1.728e-5
0.402, -1.714e-5
0.401, -1.709e-5
0.400, -1.707e-5
0.399, -1.692e-5
0.398, -1.695e-5
0.397, -1.682e-5
0.396, -1.678e-5
0.395, -1.676e-5
0.394, -1.661e-5
0.393, -1.664e-5
0.392, -1.650e-5
0.391, -1.645e-5
0.390, -1.642e-5
0.389, -1.626e-5
0.388, -1.628e-5
0.387, -1.613e-5
0.386, -1.608e-5
0.385, -1.605e-5
0.384, -1.590e-5
0.383, -1.592e-5
0.382, -1.579e-5
0.381, -1.575e-5
0.380, -1.574e-5
0.379, -1.559e-5
0.378, -1.564e-5
0.377, -1.551e-5
0.376, -1.548e-5
0.375, -1.547e-5
0.374, -1.532e-5
0.373, -1.536e-5
0.372, -1.523e-5
0.371, -1.519e-5
0.370, -1.517e-5
0.369, -1.501e-5
0.368, -1.504e-5
0.367, -1.491e-5
0.366, -1.486e-5
0.365, -1.484e-5
0.364, -1.469e-5
0.363, -1.473e-5
0.362, -1.461e-5
0.361, -1.457e-5
0.360, -1.457e-5
0.359, -1.443e-5
0.358, -1.448e-5
0.357, -1.436e-5
0.356, -1.433e-5
0.355, -1.433e-5
0.354, -1.419e-5
0.353, -1.423e-5
0.352, -1.411e-5
0.351, -1.407e-5
0.350, -1.406e-5
0.349, -1.391e-5
0.348, -1.395e-5
0.347, -1.382e-5
0.346, -1.378e-5
0.345, -1.377e-5
0.344, -1.362e-5
0.343, -1.367e-5
0.342, -1.355e-5
0.341, -1.353e-5
0.340, -1.353e-5
0.339, -1.340e-5
0.338, -1.345e-5
0.337, -1.335e-5
0.336, -1.332e-5
0.335, -1.333e-5
0.334, -1.319e-5
0.333, -1.324e-5
0.332, -1.312e-5
0.331, -1.308e-5
0.330, -1.308e-5
0.329, -1.293e-5
0.328, -1.297e-5
0.327, -1.285e-5
0.326, -1.281e-5
0.325, -1.281e-5
0.324, -1.267e-5
0.323, -1.273e-5
0.322, -1.262e-5
0.321, -1.260e-5
0.320, -1.261e-5
0.319, -1.248e-5
0.318, -1.254e-5
0.317, -1.244e-5
0.316, -1.242e-5
0.315, -1.243e-5
0.314, -1.229e-5
0.313, -1.234e-5
0.312, -1.222e-5
0.311, -1.219e-5
0.310, -1.219e-5
0.309, -1.204e-5
0.308, -1.209e-5
0.307, -1.198e-5
0.306, -1.195e-5
0.305, -1.196e-5
0.304, -1.183e-5
0.303, -1.189e-5
0.302, -1.179e-5
0.301, -1.177e-5
0.300, -1.179e-5
0.299, -1.166e-5
0.298, -1.172e-5
0.297, -1.162e-5
0.296, -1.160e-5
0.295, -1.161e-5
0.294, -1.147e-5
0.293, -1.153e-5
0.292, -1.141e-5
0.291, -1.138e-5
0.290, -1.139e-5
0.289, -1.125e-5
0.288, -1.131e-5
0.287, -1.120e-5
0.286, -1.118e-5
0.285, -1.120e-5
0.284, -1.107e-5
0.283, -1.113e-5
0.282, -1.103e-5
0.281, -1.102e-5
0.280, -1.104e-5
0.279, -1.091e-5
0.278, -1.098e-5
0.277, -1.088e-5
0.276, -1.086e-5
0.275, -1.087e-5
0.274, -1.074e-5
0.273, -1.080e-5
0.272, -1.069e-5
0.271, -1.066e-5
0.270, -1.068e-5
0.269, -1.054e-5
0.268, -1.060e-5
0.267, -1.050e-5
0.266, -1.048e-5
0.265, -1.050e-5
0.264, -1.037e-5
0.263, -1.044e-5
0.262, -1.035e-5
0.261, -1.033e-5
0.260, -1.036e-5
0.259, -1.024e-5
0.258, -1.030e-5
0.257, -1.021e-5
0.256, -1.019e-5
0.255, -1.021e-5
0.254, -1.007e-5
0.253, -1.013e-5
0.252, -1.003e-5
0.251, -1.000e-5
0.250, -1.002e-5
0.249, -9.890e-6
0.248, -9.953e-6
0.247, -9.857e-6
0.246, -9.840e-6
0.245, -9.868e-6
0.244, -9.746e-6
0.243, -9.816e-6
0.242, -9.728e-6
0.241, -9.713e-6
0.240, -9.743e-6
0.239, -9.619e-6
0.238, -9.686e-6
0.237, -9.591e-6
0.236, -9.569e-6
0.235, -9.593e-6
0.234, -9.461e-6
0.233, -9.523e-6
0.232, -9.425e-6
0.231, -9.402e-6
0.230, -9.428e-6
0.229, -9.300e-6
0.228, -9.368e-6
0.227, -9.277e-6
0.226, -9.261e-6
0.225, -9.294e-6
0.224, -9.172e-6
0.223, -9.244e-6
0.222, -9.157e-6
0.221, -9.142e-6
0.220, -9.174e-6
0.219, -9.051e-6
0.218, -9.119e-6
0.217, -9.028e-6
0.216, -9.006e-6
0.215, -9.034e-6
0.214, -8.906e-6
0.213, -8.970e-6
0.212, -8.877e-6
0.211, -8.856e-6
0.210, -8.886e-6
0.209, -8.761e-6
0.208, -8.831e-6
0.207, -8.744e-6
0.206, -8.729e-6
0.205, -8.765e-6
0.204, -8.645e-6
0.203, -8.718e-6
0.202, -8.634e-6
0.201, -8.618e-6
0.200, -8.653e-6
0.199, -8.531e-6
0.198, -8.600e-6
0.197, -8.511e-6
0.196, -8.489e-6
0.195, -8.521e-6
0.194, -8.394e-6
0.193, -8.461e-6
0.192, -8.372e-6
0.191, -8.351e-6
0.190, -8.387e-6
0.189, -8.265e-6
0.188, -8.338e-6
0.187, -8.255e-6
0.186, -8.240e-6
0.185, -8.280e-6
0.184, -8.160e-6
0.183, -8.234e-6
0.182, -8.152e-6
0.181, -8.135e-6
0.180, -8.172e-6
0.179, -8.049e-6
0.178, -8.119e-6
0.177, -8.033e-6
0.176, -8.011e-6
0.175, -8.048e-6
0.174, -7.923e-6
0.173, -7.993e-6
0.172, -7.908e-6
0.171, -7.889e-6
0.170, -7.929e-6
0.169, -7.810e-6
0.168, -7.884e-6
0.167, -7.804e-6
0.166, -7.788e-6
0.165, -7.831e-6
0.164, -7.712e-6
0.163, -7.786e-6
0.162, -7.705e-6
0.161, -7.687e-6
0.160, -7.727e-6
0.159, -7.605e-6
0.158, -7.676e-6
0.157, -7.593e-6
0.156, -7.573e-6
0.155, -7.612e-6
0.154, -7.490e-6
0.153, -7.562e-6
0.152, -7.482e-6
0.151, -7.464e-6
0.150, -7.508e-6
0.149, -7.389e-6
0.148, -7.465e-6
0.147, -7.387e-6
0.146, -7.371e-6
0.145, -7.415e-6
0.144, -7.297e-6
0.143, -7.371e-6
0.142, -7.293e-6
0.141, -7.272e-6
0.140, -7.316e-6
0.139, -7.195e-6
0.138, -7.267e-6
0.137, -7.187e-6
0.136, -7.167e-6
0.135, -7.210e-6
0.134, -7.090e-6
0.133, -7.164e-6
0.132, -7.087e-6
0.131, -7.069e-6
0.130, -7.116e-6
0.129, -6.999e-6
0.128, -7.075e-6
0.127, -6.999e-6
0.126, -6.982e-6
0.125, -7.029e-6
0.124, -6.911e-6
0.123, -6.985e-6
0.122, -6.908e-6
0.121, -6.889e-6
0.120, -6.934e-6
0.119, -6.815e-6
0.118, -6.889e-6
0.117, -6.811e-6
0.116, -6.791e-6
0.115, -6.837e-6
0.114, -6.718e-6
0.113, -6.794e-6
0.112, -6.719e-6
0.111, -6.702e-6
0.110, -6.751e-6
0.109, -6.635e-6
0.108, -6.712e-6
0.107, -6.639e-6
0.106, -6.619e-6
0.105, -6.669e-6
0.104, -6.551e-6
0.103, -6.626e-6
0.102, -6.551e-6
0.101, -6.531e-6
0.100, -6.579e-6
0.099, -6.461e-6
0.098, -6.536e-6
0.097, -6.461e-6
0.096, -6.441e-6
0.095, -6.491e-6
0.094, -6.373e-6
0.093, -6.450e-6
0.092, -6.378e-6
0.091, -6.361e-6
0.090, -6.413e-6
0.089, -6.297e-6
0.088, -6.374e-6
0.087, -6.302e-6
0.086, -6.283e-6
0.085, -6.333e-6
0.084, -6.215e-6
0.083, -6.291e-6
0.082, -6.218e-6
0.081, -6.198e-6
0.080, -6.248e-6
0.079, -6.132e-6
0.078, -6.208e-6
0.077, -6.137e-6
0.076, -6.117e-6
0.075, -6.169e-6
0.074, -6.054e-6
0.073, -6.130e-6
0.072, -6.061e-6
0.071, -6.042e-6
0.070, -6.095e-6
0.069, -5.979e-6
0.068, -6.056e-6
0.067, -5.986e-6
0.066, -5.966e-6
0.065, -6.019e-6
0.064, -5.903e-6
0.063, -5.980e-6
0.062, -5.910e-6
0.061, -5.890e-6
0.060, -5.944e-6
0.059, -5.828e-6
0.058, -5.905e-6
0.057, -5.837e-6
0.056, -5.814e-6
0.055, -5.869e-6
0.054, -5.754e-6
0.053, -5.831e-6
0.052, -5.763e-6
0.051, -5.743e-6
0.050, -5.797e-6
0.049, -5.683e-6
0.048, -5.760e-6
0.047, -5.692e-6
0.046, -5.672e-6
0.045, -5.727e-6
0.044, -5.613e-6
0.043, -5.690e-6
0.042, -5.622e-6
0.041, -5.601e-6
0.040, -5.657e-6
0.039, -5.542e-6
0.038, -5.618e-6
0.037, -5.551e-6
0.036, -5.530e-6
0.035, -5.587e-6
0.034, -5.472e-6
0.033, -5.550e-6
0.032, -5.483e-6
0.031, -5.463e-6
0.030, -5.520e-6
0.029, -5.406e-6
0.028, -5.484e-6
0.027, -5.418e-6
0.026, -5.397e-6
0.025, -5.454e-6
0.024, -5.340e-6
0.023, -5.417e-6
0.022, -5.352e-6
0.021, -5.329e-6
0.020, -5.387e-6
0.019, -5.272e-6
0.018, -5.349e-6
0.017, -5.284e-6
0.016, -5.263e-6
0.015, -5.322e-6
0.014, -5.208e-6
0.013, -5.286e-6
0.012, -5.222e-6
0.011, -5.201e-6
0.010, -5.261e-6
0.009, -5.147e-6
0.008, -5.224e-6
0.007, -5.160e-6
0.006, -5.138e-6
0.005, -5.197e-6
0.004, -5.083e-6
0.003, -5.160e-6
0.002, -5.096e-6
0.001, -5.074e-6
