Jan. 17, 2024   14:49:04
Cyclic Voltammetry
File: c:/users/lab/d3talesrobotics/roboticsui/robotics_api/workflows/actions/examples\potentiostatstation_test.bin
Data Source:  Experiment
Instrument Model:  CHI650E
Header:  PotentiostatStation_Test
Note: 

Init E (V) = 0
High E (V) = 1
Low E (V) = 0
Final E (V) = 0
Init P/N = P
Scan Rate (V/s) = 0.1
Segment = 2
Sample Interval (V) = 0.01
Quiet Time (sec) = 2
Sensitivity (A/V) = 1e-5

Segment 1:
Ep = 0.805V
ip = -1.517e-5A
Ah = -1.138e-5C

Segment 2:
Ep = 0.715V
ip = 1.446e-5A
Ah = 1.119e-5C

Potential/V, Current/A

0.005, -4.001e-9
0.015, -4.482e-9
0.025, -4.679e-9
0.035, -4.816e-9
0.045, -4.974e-9
0.055, -5.121e-9
0.065, -5.278e-9
0.075, -5.386e-9
0.085, -5.543e-9
0.095, -5.710e-9
0.105, -5.887e-9
0.115, -6.025e-9
0.125, -6.231e-9
0.135, -6.388e-9
0.145, -6.732e-9
0.155, -7.037e-9
0.165, -7.381e-9
0.175, -7.823e-9
0.185, -8.265e-9
0.195, -8.737e-9
0.205, -9.365e-9
0.215, -1.003e-8
0.225, -1.075e-8
0.235, -1.151e-8
0.245, -1.233e-8
0.255, -1.316e-8
0.265, -1.393e-8
0.275, -1.483e-8
0.285, -1.555e-8
0.295, -1.632e-8
0.305, -1.710e-8
0.315, -1.785e-8
0.325, -1.853e-8
0.335, -1.920e-8
0.345, -1.986e-8
0.355, -2.045e-8
0.365, -2.104e-8
0.375, -2.167e-8
0.385, -2.224e-8
0.395, -2.289e-8
0.405, -2.346e-8
0.415, -2.420e-8
0.425, -2.492e-8
0.435, -2.575e-8
0.445, -2.685e-8
0.455, -2.812e-8
0.465, -2.967e-8
0.475, -3.170e-8
0.485, -3.415e-8
0.495, -3.723e-8
0.505, -4.093e-8
0.515, -4.527e-8
0.525, -5.007e-8
0.535, -5.515e-8
0.545, -6.046e-8
0.555, -6.620e-8
0.565, -7.284e-8
0.575, -8.119e-8
0.585, -9.259e-8
0.595, -1.089e-7
0.605, -1.327e-7
0.615, -1.675e-7
0.625, -2.185e-7
0.635, -2.926e-7
0.645, -4.003e-7
0.655, -5.559e-7
0.665, -7.804e-7
0.675, -1.099e-6
0.685, -1.546e-6
0.695, -2.162e-6
0.705, -2.993e-6
0.715, -4.073e-6
0.725, -5.424e-6
0.735, -7.016e-6
0.745, -8.782e-6
0.755, -1.060e-5
0.765, -1.227e-5
0.775, -1.370e-5
0.785, -1.469e-5
0.795, -1.531e-5
0.805, -1.544e-5
0.815, -1.538e-5
0.825, -1.498e-5
0.835, -1.465e-5
0.845, -1.410e-5
0.855, -1.375e-5
0.865, -1.323e-5
0.875, -1.295e-5
0.885, -1.250e-5
0.895, -1.231e-5
0.905, -1.193e-5
0.915, -1.179e-5
0.925, -1.149e-5
0.935, -1.137e-5
0.945, -1.113e-5
0.955, -1.104e-5
0.965, -1.084e-5
0.975, -1.076e-5
0.985, -1.060e-5
0.995, -1.053e-5
0.995, -1.036e-5
0.985, -1.028e-5
0.975, -1.016e-5
0.965, -1.009e-5
0.955, -9.990e-6
0.945, -9.919e-6
0.935, -9.836e-6
0.925, -9.752e-6
0.915, -9.675e-6
0.905, -9.569e-6
0.895, -9.476e-6
0.885, -9.325e-6
0.875, -9.184e-6
0.865, -8.937e-6
0.855, -8.680e-6
0.845, -8.252e-6
0.835, -7.752e-6
0.825, -6.999e-6
0.815, -6.084e-6
0.805, -4.842e-6
0.795, -3.409e-6
0.785, -1.670e-6
0.775, 1.295e-7
0.765, 1.995e-6
0.755, 3.619e-6
0.745, 4.970e-6
0.735, 5.843e-6
0.725, 6.324e-6
0.715, 6.381e-6
0.705, 6.208e-6
0.695, 5.825e-6
0.685, 5.415e-6
0.675, 4.945e-6
0.665, 4.538e-6
0.655, 4.125e-6
0.645, 3.792e-6
0.635, 3.461e-6
0.625, 3.205e-6
0.615, 2.945e-6
0.605, 2.750e-6
0.595, 2.547e-6
0.585, 2.394e-6
0.575, 2.235e-6
0.565, 2.112e-6
0.555, 1.986e-6
0.545, 1.885e-6
0.535, 1.785e-6
0.525, 1.697e-6
0.515, 1.616e-6
0.505, 1.539e-6
0.495, 1.471e-6
0.485, 1.403e-6
0.475, 1.345e-6
0.465, 1.285e-6
0.455, 1.233e-6
0.445, 1.183e-6
0.435, 1.134e-6
0.425, 1.094e-6
0.415, 1.047e-6
0.405, 1.015e-6
0.395, 9.704e-7
0.385, 9.451e-7
0.375, 9.020e-7
0.365, 8.812e-7
0.355, 8.418e-7
0.345, 8.230e-7
0.335, 7.885e-7
0.325, 7.701e-7
0.315, 7.408e-7
0.305, 7.223e-7
0.295, 6.973e-7
0.285, 6.790e-7
0.275, 6.573e-7
0.265, 6.398e-7
0.255, 6.214e-7
0.245, 6.039e-7
0.235, 5.882e-7
0.225, 5.712e-7
0.215, 5.569e-7
0.205, 5.413e-7
0.195, 5.279e-7
0.185, 5.140e-7
0.175, 5.011e-7
0.165, 4.887e-7
0.155, 4.763e-7
0.145, 4.651e-7
0.135, 4.534e-7
0.125, 4.430e-7
0.115, 4.324e-7
0.105, 4.225e-7
0.095, 4.132e-7
0.085, 4.031e-7
0.075, 3.951e-7
0.065, 3.852e-7
0.055, 3.782e-7
0.045, 3.683e-7
0.035, 3.623e-7
0.025, 3.529e-7
0.015, 3.474e-7
0.005, 3.386e-7
