Jan. 16, 2025   15:56:53
Cyclic Voltammetry
File: c:/users/lab/d3talesrobotics/roboticsui/test_data/cv_testing\cvum_fc_test01.bin
Data Source:  Experiment
Instrument Model:  CHI650E
Header:  CV CVUM_Fc_test01
Note: 

Init E (V) = 0
High E (V) = 0.5
Low E (V) = -0.2
Final E (V) = -0.2
Init P/N = P
Scan Rate (V/s) = 0.1
Segment = 2
Sample Interval (V) = 0.01
Quiet Time (sec) = 2
Sensitivity (A/V) = 1e-6

Segment 1:
Segment 2:

Potential/V, Current/A

0.005, -4.127e-12
0.015, -2.162e-12
0.025, 6.681e-12
0.035, 1.061e-11
0.045, 1.258e-11
0.055, 1.159e-11
0.065, 1.847e-11
0.075, 6.681e-12
0.085, 2.240e-11
0.095, 1.847e-11
0.105, 1.945e-11
0.115, 2.535e-11
0.125, 2.633e-11
0.135, 2.731e-11
0.145, 3.812e-11
0.155, 3.812e-11
0.165, 3.517e-11
0.175, 3.812e-11
0.185, 3.419e-11
0.195, 3.616e-11
0.205, 4.205e-11
0.215, 3.910e-11
0.225, 4.009e-11
0.235, 4.009e-11
0.245, 3.812e-11
0.255, 3.419e-11
0.265, 3.616e-11
0.275, 4.009e-11
0.285, 4.696e-11
0.295, 4.795e-11
0.305, 3.812e-11
0.315, 4.500e-11
0.325, 4.598e-11
0.335, 4.205e-11
0.345, 3.517e-11
0.355, 4.303e-11
0.365, 3.616e-11
0.375, 4.402e-11
0.385, 4.205e-11
0.395, 5.188e-11
0.405, 4.795e-11
0.415, 3.812e-11
0.425, 3.223e-11
0.435, 4.500e-11
0.445, 4.696e-11
0.455, 4.795e-11
0.465, 4.205e-11
0.475, 4.107e-11
0.485, 4.696e-11
0.495, 4.991e-11
0.495, 7.644e-11
0.485, 7.644e-11
0.475, 7.251e-11
0.465, 7.055e-11
0.455, 6.858e-11
0.445, 6.956e-11
0.435, 6.662e-11
0.425, 7.644e-11
0.415, 6.662e-11
0.405, 7.349e-11
0.395, 8.135e-11
0.385, 7.644e-11
0.375, 7.448e-11
0.365, 8.037e-11
0.355, 7.644e-11
0.345, 7.349e-11
0.335, 7.742e-11
0.325, 7.742e-11
0.315, 7.742e-11
0.305, 7.349e-11
0.295, 8.430e-11
0.285, 7.546e-11
0.275, 8.332e-11
0.265, 7.742e-11
0.255, 7.349e-11
0.245, 7.841e-11
0.235, 7.251e-11
0.225, 7.349e-11
0.215, 7.448e-11
0.205, 8.135e-11
0.195, 8.430e-11
0.185, 8.037e-11
0.175, 8.037e-11
0.165, 7.448e-11
0.155, 8.135e-11
0.145, 7.939e-11
0.135, 8.528e-11
0.125, 7.153e-11
0.115, 8.135e-11
0.105, 8.332e-11
0.095, 8.234e-11
0.085, 7.644e-11
0.075, 7.939e-11
0.065, 7.448e-11
0.055, 8.430e-11
0.045, 8.332e-11
0.035, 7.841e-11
0.025, 8.135e-11
0.015, 7.742e-11
0.005, 8.135e-11
-0.005, 8.332e-11
-0.015, 8.921e-11
-0.025, 8.234e-11
-0.035, 8.528e-11
-0.045, 8.921e-11
-0.055, 8.921e-11
-0.065, 8.725e-11
-0.075, 9.020e-11
-0.085, 9.020e-11
-0.095, 7.939e-11
-0.105, 9.216e-11
-0.115, 8.921e-11
-0.125, 8.921e-11
-0.135, 8.921e-11
-0.145, 9.413e-11
-0.155, 8.627e-11
-0.165, 8.627e-11
-0.175, 8.528e-11
-0.185, 8.627e-11
-0.195, 8.921e-11
